Pectoralis,AntDelt,PostDelt,TeresMaj,TriLong,TriShort,BicepLong,BicepShort,Brachiorad,FlexCarpiRad,FlexCarpiUln,ExtCarpiRad,
0.00888561,0.000800508,6.98946e-05,0.00105817,-0.000265866,-0.00112638,-0.00321143,-0.00107982,0.00749259,0.00255334,0.00140038,0.002392,
0.0121352,0.00323169,-0.00183797,-0.00210971,-0.00310313,0.0039724,0.00166123,-0.00209958,0.00817991,-0.00174027,0.00916499,0.00760431,
0.01925,0.00147845,-0.00117032,0.00341475,-0.000789567,0.00166666,-0.00022671,-0.00376358,0.00275159,0.0123173,0.00276458,0.00670076,
0.0279768,0.00326756,-0.00211243,-0.00200696,0.000557861,0.00129277,-0.000182583,-0.00220849,-0.00428522,0.0163951,0.0044134,0.000647405,
0.0215747,0.0102089,0.000486753,0.000941641,-0.00260226,0.00124107,-0.000781676,-0.00258535,-0.00134067,0.0169323,0.00606313,0.00296604,
0.0241897,0.0045957,-0.00721631,-0.00254885,0.00164188,0.00151164,-0.00234569,-0.000386949,0.00450248,0.0103875,0.0118992,0.00689609,
0.0309928,0.00799832,-0.000754048,7.72586e-05,-0.00312882,-0.000149074,0.00446194,-0.000442364,0.0148539,0.00963853,0.0141953,0.0159791,
0.0303944,0.00206616,-0.00105271,-0.000194462,0.00240212,0.00301977,0.00933932,0.000467857,0.015548,0.00728072,0.0119858,0.0340787,
0.0294774,0.00450614,-0.00328318,-0.00143241,-0.00655491,-0.0021814,0.00777949,-0.00473897,0.0117359,0.00524581,0.00462701,0.0357615,
0.0243785,0.00759179,0.000925021,0.00151443,-0.00070321,0.00324204,0.0100848,-0.00157542,0.00695878,0.00643132,0.00531871,0.0377688,
0.0231464,0.00456243,-0.00227163,0.00156329,-0.00354461,0.00287111,0.0107826,0.000300297,0.00829933,0.00665207,0.0101978,0.0375251,
0.0225618,0.00378867,0.000648411,-0.000641999,5.21344e-05,0.00282276,0.0143801,-0.00136538,0.00352364,0.00333254,0.00960618,0.0392157,
0.0223028,0.00720225,0.00163659,0.00423483,-0.00472236,0.00631645,0.0192679,0.000188389,0.0151675,0.00452132,0.0054757,0.0351141,
0.00562849,0.00675474,-0.00252652,-0.000869213,-0.00370269,0.00562562,0.0164318,-0.00212109,0.0284216,0.00635514,0.00456728,0.0255423,
0.010528,0.00888506,0.000392857,0.0014307,-0.00558131,0.00461361,0.0213252,-0.00185492,0.035559,0.00239518,0.00720302,0.00406141,
-0.00227552,0.0090861,-0.0011952,-0.00174318,-0.00134389,0.00489017,0.0155975,0.00227471,0.0407649,0.00777273,0.0104856,-0.0151632,
0.00134372,0.00961155,0.00140173,-0.00878119,-0.00483396,0.00613338,0.0188874,-0.00711702,0.0321272,0.00413711,0.00765436,-0.0466189,
-0.0172473,0.0104615,-0.000508798,-0.00841542,-0.000276391,-0.00260277,0.0205708,0.00055443,0.0315378,0.00565378,0.0148065,-0.0484533,
-0.0145864,0.00906039,-0.00435126,-0.00579698,-0.00054888,0.0028274,0.020648,-0.00497344,-0.00189018,0.00137672,0.0132696,-0.0676698,
-0.0183605,0.0115252,-0.00175516,-0.00639893,-0.00275397,0.00117573,0.0204067,0.000767023,-0.0546356,0.00257389,0.0139898,-0.0633818,
-0.0121506,0.00884171,0.000196749,-0.00539217,-0.00174062,0.00531993,0.0172714,0.00103489,-0.0793731,0.00409423,0.00698683,-0.0475011,
-0.0233217,0.00873641,-0.00107106,-0.0105033,-0.0026599,0.00173844,0.0144616,0.000337396,-0.0596839,0.00497189,0.00449472,-0.0316173,
-0.017426,0.00992161,-0.00298306,-0.00531341,0.00189282,0.000411474,0.0177724,0.00350374,-0.0399962,-0.00380751,0.00844516,-0.0266762,
-0.0169993,0.0091779,-0.0036076,-0.00688532,-0.00224791,0.00230487,0.0114285,0.00184154,-0.0190223,-0.00196163,0.00660443,-0.0185122,
0.00661136,0.0129441,-0.00197887,-0.00362916,-0.000594727,0.00194563,0.0105613,-0.000141972,-0.0164008,0.00020738,0.00573336,0.00124559,
0.00125146,0.00705481,-0.00163821,-0.0035935,0.00105741,0.00158735,0.0096976,-0.000837025,0.00102828,0.00141173,0.00325648,0.0329194,
0.0155344,0.00470959,-0.00644892,-0.00710025,-0.00662783,0.000264207,0.00851557,-0.008936,-0.000216994,0.00390501,0.00207132,0.056549,
0.0137246,0.00784007,-0.00160168,-0.00352534,-0.00433394,0.00119563,0.00733707,-0.00222486,0.00465285,0.00575556,0.00797289,0.0856563,
0.0235093,0.00421243,-0.00126191,-0.00284895,0.00246605,0.000518305,0.00519624,0.00158967,-0.00528844,0.0072853,0.00840549,0.0996373,
0.0146259,0.00445072,0.00100924,-0.00539299,-0.00329078,0.000807785,0.00241496,0.000254034,-0.0084708,0.00269926,0.0036911,0.10815,
0.0141178,0.00404771,0.00392401,0.000432452,0.00157538,-0.00244312,0.00736367,0.00954346,-0.0187377,0.00101179,0.0115366,0.0944543,
0.0158679,-0.000538015,-0.00732692,-0.00275746,-0.00193004,0.00106773,0.000403846,0.00917565,-0.0331918,-0.00614763,0.0110157,0.0672418,
0.0227739,-0.00125794,0.00106038,0.00145635,-0.000607429,0.000394316,0.00729079,0.0133161,-0.0383114,-0.00944271,0.0133964,0.0422878,
0.0203483,-0.00680456,-0.000854683,-0.000447662,-0.00379311,0.00648267,-0.00416978,0.0110189,-0.0276578,-0.00726377,0.00773276,0.0289283,
0.0163178,-0.00236859,0.00302501,-0.0010648,-0.00504823,-0.000305685,-0.00339344,0.0119422,-0.0269861,-0.0173176,0.0023952,0.0162171,
0.0135798,-0.00340328,0.00110955,-0.000716987,-0.0021192,0.00449685,-0.00100433,0.01673,-0.0160139,-0.0154586,0.00672004,-0.00711414,
0.0253339,-0.00282596,0.00756442,0.00445912,-0.00498622,0.00157376,-0.00376332,0.0118607,-0.0063311,-0.00683785,0.00396627,-0.0368804,
0.024215,-0.00514384,0.00275115,-0.0058188,-0.00238131,0.0038027,-0.00877299,0.00151958,0.00238444,0.00146201,0.0012166,-0.0595603,
0.0127985,-0.00102064,0.0030888,0.00450678,-0.00267494,0.000237639,-0.00476543,0.00180369,0.0101329,0.00171436,0.00104653,-0.0613108,
9.86431e-05,-0.00462184,-0.00140284,2.22774e-05,0.000893684,0.000536824,-0.00622809,-0.0104668,0.0149826,0.00389945,0.00313409,-0.0492147,
-0.00100692,-0.000494251,0.00633918,0.001332,-0.00423116,-0.000772773,-0.00028333,-0.00663908,0.0130706,-0.00196291,0.00393788,-0.0335744,
-0.00468377,-0.00795442,0.00120335,6.54776e-05,-0.00130846,0.00403544,-0.00592578,-0.00828328,0.0118015,0.00988267,0.00313594,-0.0256578,
-0.0135076,-0.00156894,0.00540369,-0.00345532,-0.000962295,-0.000491769,-0.000619533,-0.0108922,0.00666832,0.000481227,0.00137211,-0.0193483,
-0.024259,0.000955356,0.00219921,0.00139373,-0.000295152,0.00431822,0.00372351,-0.00609538,0.00700741,0.00717806,0.00347547,-0.0146457,
-0.021163,0.00187205,-0.0013274,0.00270079,0.000371048,0.00333412,0.00356195,0.000956149,0.00316061,0.00679335,0.00397297,-0.0121941,
-0.0206386,0.00150306,0.000618826,0.00110977,-0.00347086,0.00331668,0.00436876,-0.00197141,0.000279092,0.00866342,0.00415233,-0.0152128,
-0.0275152,0.00210197,0.000955141,0.00112788,-0.0015187,0.00330006,0.0022806,0.0037946,-0.00550039,0.0060275,0.00111603,-0.00148793,
-0.0256955,-0.000194542,0.00193513,-0.0030398,-0.00343071,0.000386751,0.0018046,-0.00299398,-0.0103144,0.000495289,0.00774169,0.0096641,
-0.0151796,0.00234011,0.00388072,0.00309413,-0.00663133,0.000693618,0.00680402,0.00374018,-0.0167385,-0.00406992,0.0060005,0.0147019,
-0.00723548,-0.000596225,-0.00190054,0.001179,-0.0033939,0.0032548,0.00182559,0.0050025,-0.0131826,-0.00219512,0.00297513,0.0104061,
-0.00862385,0.00226439,0.000366484,0.000229217,-0.0036986,0.00163144,0.00457607,0.00497826,-0.00479775,-0.00192887,0.000275213,0.00933241,
-0.00453536,0.00287338,0.000379641,0.00282033,-0.000784601,0.00033067,0.00507518,0.00753075,0.0071285,0.00542125,0.00208593,0.0108369,
0.00342035,0.000908781,-0.00218303,0.00283546,-0.00237846,0.00224994,0.00300093,0.0020359,0.00521136,-0.00107099,-0.000607159,0.00590524,
0.0075167,0.00699466,0.000726994,0.000918519,-0.00268519,-0.000659329,0.00543596,0.000727502,0.00265056,-0.00498656,0.00249801,0.00483949,
-0.00415811,0.000526695,0.000417271,-3.30101e-05,-0.00267055,0.00254884,-0.000175522,0.00360555,-0.000231832,-0.00761323,0.00142116,0.00281049,
-0.00778031,0.00629439,-0.000858625,-0.00420435,-0.00297838,-0.00518851,-0.00256564,-0.00188569,-0.000216292,-0.00830713,-0.00126225,-0.000181799,
-0.0059254,0.0107761,0.00172842,0.00224801,-0.000389199,-0.000369662,-0.00270029,0.00163863,0.00462894,-0.013829,0.0028182,0.000691707,
-0.00149079,0.0062453,-0.00727483,-0.00160214,-0.0013418,-0.00198922,-0.00766226,0.00130083,0.00818708,-0.0116232,0.00625778,-0.000363995,
-0.00316888,0.00815503,-0.00179108,0.00130815,0.00285631,0.00218656,-0.0135883,-0.00193328,0.0130338,-0.010382,0.000685894,-0.00689031,
-0.00323297,0.00620314,-0.00113688,0.00067674,0.00190305,-7.61338e-05,-0.0172591,0.0035262,0.0146619,-0.0101054,0.000589868,-0.00826321,
-0.000395246,0.00521868,-0.00112697,-0.00156469,0.000627605,-0.00266045,-0.02286,0.00126023,0.00759856,-0.0149787,-0.00240088,-0.00770214,
0.00309077,0.00423577,-0.000151669,0.000700772,0.00096168,0.000228533,-0.024274,0.00833171,0.00311178,-0.0130899,0.00362542,-0.00746073,
0.00754709,0.00325432,0.00146708,0.00425372,0.00129562,0.00215194,-0.0314814,0.0083216,0.000879692,-0.009268,-0.00322337,-0.013334,
0.00975436,-0.00191099,-0.00270956,-0.00313963,0.00549278,-0.000753563,-0.034502,0.00573705,-0.00972173,-0.00608857,0.0034519,-0.00729311,
0.0196928,7.72605e-06,-0.000447814,0.00491999,0.00743631,-0.00559054,-0.0371989,0.00991435,0.00124818,0.00353125,-0.000172551,-0.0105863,
0.0222313,-0.00773059,-0.0126739,0.00332111,0.00455072,-0.0030227,-0.0392503,0.00926356,0.0167266,0.0141185,0.00264417,-0.00325324,
0.0305694,-0.00194621,0.00182072,0.00300977,0.00230907,0.000833032,-0.0396902,0.00893571,0.0196506,0.0234198,-0.00258542,-0.00300062,
0.017342,-0.011292,-0.00267968,0.00366403,0.00135528,0.00114749,-0.035299,0.00925268,0.0248295,0.0314351,0.000879585,0.00208339,
0.0247236,-0.00614946,-0.0039611,0.00174254,0.00297714,-0.00304518,-0.0270423,0.0105364,0.0197078,0.0330134,-0.00305801,-0.00152276,
0.0179443,-0.00583509,-0.00137966,0.000464723,0.00492109,-0.00240868,-0.0216807,0.00892335,0.0207044,0.0345936,0.00395241,0.00968272,
0.0230815,-0.00358818,-0.00105225,0.00176222,0.00654328,-0.000806353,-0.0166384,0.00988661,0.0165513,0.034244,-0.00255684,0.00414952,
0.00633108,-0.00842317,-0.00330078,-0.00144768,0.00237071,0.000474023,-0.0067641,0.00376778,0.0111119,0.0200528,-0.00520097,0.0137499,
0.00246273,-5.7755e-05,0.00282078,0.00435658,0.00109584,0.00014465,0.01084,0.00408832,0.0137223,0.00393167,-0.00398008,0.0172357,
-0.00719631,-0.00585704,-0.00264796,-0.00207319,-0.000178791,-0.00179449,0.0158918,-0.0110439,0.0156902,-0.00993415,0.00110577,0.0210458,
-0.000754071,0.00283177,0.00186313,0.00276479,-0.00145318,-0.000192357,0.0270642,-0.0200589,0.0176593,-0.0122084,-0.0028212,0.0103708,
-0.0133024,-0.00425391,0.000900856,-0.00205572,-0.00111759,0.000443849,0.0243971,-0.0268201,0.0205953,-0.010296,-0.00320532,0.0132196,
-0.00395462,-0.00393428,0.00380155,-0.00880812,0.00275963,-0.0037492,0.0297828,-0.0371225,0.0228885,-0.0183622,-0.00326608,0.0109194,
-0.00651486,-0.00554569,0.0012289,-0.00203919,0.00438355,-0.00536687,0.0335633,-0.0390543,0.0129488,-0.01033,-0.00171578,0.0153822,
0.00380635,-0.00490293,-0.00230988,-0.00396294,0.00343224,-0.00601886,0.0379923,-0.0387323,0.00622921,-0.00519392,-0.0030617,0.0101888,
-0.00711691,-0.00490349,-5.40112e-05,-0.00395526,0.000871537,-0.00216385,0.0385627,-0.0393761,0.00111996,0.00412872,-0.00440641,0.0082167,
-0.00902217,-0.00651322,0.00316739,0.00313492,0.00185252,-0.00442592,0.0468647,-0.027142,-0.00624245,0.0105551,-0.00639385,0.00689035,
-0.00738253,-0.00619075,0.000271622,-0.00104307,0.00412159,-0.00475653,0.0413282,-0.0255317,-0.00813156,0.00635872,-0.00161944,0.00299018,
-0.00155416,-0.00232641,0.00188277,0.00379311,0.00703487,-0.00379955,0.044811,-0.00975553,-0.0026159,-0.00395341,0.00219018,-0.00638138,
-0.00473676,-0.00264678,-0.00262325,-0.00167304,-0.00325114,-0.00284276,0.0289824,-0.00170544,0.00869467,0.00247658,0.00117164,-0.0205806,
0.00206419,-0.00232273,0.0022068,-0.00166635,0.00674551,-0.00446169,0.0324753,-0.00266902,0.014532,-0.00107254,-0.00145569,-0.0225446,
0.00468319,-0.00167622,-0.0029436,0.000271828,0.00225509,-0.00608078,0.0243831,0.000875464,0.0194032,-0.000113422,0.00654193,-0.0145271,
0.0143882,-0.00360469,-0.00455287,0.00285373,0.00420382,-0.0067342,0.0227346,0.00474292,0.0204106,-0.00108496,0.00166267,-0.0158448,
0.0131503,0.00605729,-0.00519655,-0.0013253,3.59361e-05,-0.000305019,0.0169055,0.0134407,0.0246366,0.00309552,0.000969416,-0.0190929,
0.00901799,0.00638352,0.00220812,0.00125632,0.00617047,0.000651041,0.0133345,0.0224617,0.0175937,0.000838067,-0.00197675,-0.0152572,
0.00907397,0.00992973,-0.00229927,-0.00421074,0.00329089,-0.00257822,0.00944591,0.0211822,0.00314501,0.00212282,-0.00266869,-0.00852299,
0.00655732,0.0215251,0.0018856,0.001912,0.00846009,-0.00806113,0.0042737,0.0308502,0.000284792,-0.00109881,-0.000462592,-0.00404126,
0.00758485,0.0221749,-0.00906096,0.000308014,-0.00375538,0.000621393,-0.00250426,0.0331153,-0.00483069,0.00211914,-0.00662648,-0.00792897,
-0.00394067,0.0292641,0.00349411,0.00353307,0.00173614,0.000611499,-0.00734679,0.036026,-0.0154211,-0.00496435,-0.00441942,0.00299373,
-0.00612729,0.0234761,0.000595852,-0.000968578,-0.000820752,-0.000364168,-0.0150832,0.0347534,-0.00991659,-0.0043206,0.00229522,0.0193905,
-0.00702367,0.0231615,0.00091692,0.00129048,0.0014516,0.000591907,-0.0199188,0.0276876,-0.0172922,-0.00818343,0.0012836,0.0138963,
0.00528193,0.0193058,-0.00326927,8.10365e-06,-0.00368064,0.00219199,-0.0202439,0.0209455,-0.026602,-0.0027094,-0.00198131,0.00132042,
0.00439015,0.0109431,0.00284664,0.00452062,-0.000764289,0.00475807,-0.0167027,0.0167807,-0.0262565,-0.000776221,-0.00878733,-0.0057814,
0.0115491,-0.000960965,0.00220175,-0.00287878,-0.000423456,-0.00104616,-0.0150902,0.0110079,-0.0333186,-0.00109616,-0.00496907,0.00546848,
0.0167783,-0.00513855,0.00381045,0.0100041,0.00217095,0.00248616,-0.007036,0.0126414,-0.0448911,-0.0017376,-0.000506758,0.00931469,
0.0181462,-0.017365,-0.00262938,0.00453625,0.0015459,0.00183349,-0.00445213,0.00429614,-0.0526035,0.00341633,-0.0050587,-0.00164748,
0.0108234,-0.0212213,0.00252074,0.00454134,-0.000366999,0.00150304,-0.0021876,0.0133371,-0.0490514,-0.00205345,-0.0118641,-0.0148623,
0.00672164,-0.0353803,-5.56996e-05,0.000683064,-0.000348354,0.0011729,0.00104527,0.0152966,-0.0409955,-0.00172793,-0.00579184,-0.0200277,
0.0122796,-0.0302235,-0.002954,0.00165384,0.00256763,-0.000766611,0.0075,0.0169353,-0.0316552,-0.0110604,-0.00326085,-0.0280897,
0.0200923,-0.0308624,0.0012305,0.00198063,0.00194208,-0.000452174,0.0117035,0.0176091,-0.0242499,-0.0107342,-0.000407895,-0.0171562,
0.0108433,-0.0298924,0.000264048,0.00198537,0.000350496,0.00147236,0.00592895,0.0160302,-0.0191015,-0.00976397,-0.00238405,-0.00815347,
0.00803388,-0.029889,0.000263543,-0.00766828,-0.000597445,-0.000144067,0.00788317,0.00833494,-0.0216828,-0.011047,-0.000818828,0.0092207,
0.00812263,-0.0195842,0.00541425,-0.00541022,-0.00154566,0.00145936,0.0098394,0.00707897,-0.0155747,-0.0129737,-0.00504856,0.0175815,
0.00628015,-0.0173288,-0.000702849,-0.00765951,-0.00346002,0.00145353,0.00922198,-0.000937539,-0.0162302,-0.0113588,-0.0031614,0.0188606,
-0.00135708,-0.00734742,0.00477014,-0.00379206,-0.00988192,0.00885283,0.000879708,-0.00380296,-0.0104496,-0.012963,-0.00674725,0.00887273,
-0.00996018,-0.00638107,0.00122893,-0.00507585,-0.00439233,0.00659437,-0.00842678,-0.0053808,-0.00595931,-0.00297694,-0.00453815,0.00468091,
-0.00922724,0.00295523,0.00187316,-0.00475009,-0.000190907,0.00465836,-0.00453217,-0.00663709,-0.00179326,-0.00715596,-0.0058704,-0.00369509,
-0.0110703,0.0100375,0.00187371,-0.00442448,-0.00178486,0.00240092,-0.0109384,-0.00370873,0.00848754,0.00122117,0.00342146,0.00145154,
-0.00679725,0.0119683,-0.00424244,-0.00281125,-0.00370119,0.00658283,-0.0183092,-0.00593223,0.0103959,0.00315994,-0.00563734,0.00241397,
-0.00767616,0.0132549,-0.00230982,-0.00377367,-0.000788836,0.00432641,-0.0153767,-0.00815671,0.0110148,0.00413341,0.00140102,0.0162551,
-0.0030832,0.0148632,0.00380826,0.00299042,-0.00206219,0.00528991,-0.0166285,-0.0142457,0.00487131,0.000278336,-0.005726,0.0204391,
-0.00106709,0.0119641,-0.00230722,-0.00151354,-0.00301407,-0.000184939,-0.0223866,-0.0203359,0.00677498,-0.0058297,-0.00158495,0.0243021,
0.00738633,0.0126063,0.00155773,0.00267487,0.000218815,0.00850614,-0.0210611,-0.0209547,0.00964326,-0.00421044,-0.00227291,0.0226931,
-0.00122488,0.00616564,-0.00198175,0.00332189,-0.0020218,0.00238834,-0.0287493,-0.0193216,0.0118666,-0.00226849,0.00283423,0.0226946,
0.00271774,0.00616371,0.00445923,0.00396889,0.00185399,0.00399758,-0.0235589,-0.023807,0.00732821,0.00353755,0.00440018,0.022697,
0.00118524,0.00390809,0.000598319,0.00332813,-0.000387613,0.00142197,-0.0209433,-0.0189581,0.0156667,0.00322755,0.00596632,0.0272073,
0.00576734,4.26739e-05,-0.00261845,-0.000853974,-0.00166389,0.00206617,-0.0196148,-0.0263449,0.0127366,-0.000622906,0.0052791,0.016265,
-0.00639405,4.04744e-05,0.00285749,0.00269055,-0.00551622,0.00528623,-0.0118465,-0.0250413,0.00916213,0.000356739,0.0126407,0.0210982,
-0.0105096,-0.00124958,0.00382651,0.00365958,-0.00196438,0.00593107,-0.00697481,-0.0247055,0.00462136,4.96385e-05,0.011632,0.00597124,
-0.0162377,-0.00736886,-0.000999154,-0.00148825,-0.00613966,0.000459271,-0.00596548,-0.0269474,-0.00088556,0.00682634,0.0128771,-0.0175261,
-0.0116668,0.00260888,0.00479955,0.00334418,0.00224029,0.00368013,0.00438122,-0.0250061,-0.00478301,0.00426785,0.0125128,-0.0490722,
-0.024484,-0.00383251,-0.000991392,-0.00180354,-0.000326289,0.00175008,0.00378301,-0.02693,-0.00449535,0.00718354,0.00989504,-0.0509999,
-0.0202418,0.00195981,0.00319815,0.00335094,-0.00257141,0.000142106,0.00833707,-0.0237049,-0.0135441,0.0117102,0.000838634,-0.0474551,
-0.0205102,0.000669344,0.000949112,0.000134997,-0.0015976,-0.00210968,0.00999495,-0.0220914,-0.00520785,0.0281499,-0.00628599,-0.0297453,
-0.011446,0.00259823,0.000953936,0.00271407,0.000663517,-0.00436145,0.0132639,-0.017904,-0.00266643,0.0268841,-0.00793753,-0.0274893,
-0.0194485,0.000985688,0.00578815,0.00271768,-0.00737798,0.00014754,0.0181439,-0.0121086,0.00502635,0.0220782,-0.00926709,-0.0220145,
-0.015543,0.0009828,0.00579347,0.00433105,-0.000932525,0.000471209,0.014333,-0.00792441,0.00692457,0.0185613,-0.0144599,-0.023301,
-0.0155048,-0.000307911,0.00161379,-0.00757708,-0.00350188,-0.000814951,0.0172844,-0.00374151,0.00399418,0.012792,-0.0222284,-0.0149298,
-0.0122511,0.00644987,0.00677064,0.00272885,4.52506e-05,0.000152318,0.0263541,0.00752297,0.00943491,0.00766772,-0.0200166,-0.007203,
-0.0144744,0.000973805,-0.00159388,-0.00306228,-0.00574433,0.00498268,0.0161089,0.00172353,0.0123008,0.00866138,-0.0229559,-0.00816903,
-0.0141263,0.0025804,0.00195362,0.00112685,0.000377586,0.00240812,0.0164892,0.00944483,0.012914,-0.000646134,-0.0130175,-0.00366238,
-0.0118505,-0.00257385,2.82496e-05,-0.00756166,-0.00444687,-0.00113258,0.0113979,0.0139461,0.01385,0.0006713,-0.00565464,0.0143656,
-0.00217418,-1.56305e-06,0.00132242,-0.00401632,0.00103051,-0.00145421,0.012103,0.0168371,0.0131773,-0.00766875,0.00235227,0.0137208,
-0.0105306,0.00385841,0.000363075,-0.00336841,-0.00154094,0.000155396,0.00958994,0.0139328,0.0224858,-0.00860346,0.00231082,0.0220902,
-0.0111645,0.00192335,0.000691561,0.00114287,-0.00185905,0.000154833,0.00900979,0.0193987,0.0253565,-0.00824981,-0.00191561,0.0169381,
-0.0134121,-0.00323124,-0.00541876,-0.00271627,0.00168593,-0.00435343,0.00971854,0.0132747,0.0169604,-0.00338846,0.0031946,0.0133957,
-0.0127661,0.000950395,6.08272e-05,0.00276099,0.00716239,-0.0069306,0.0117161,0.0187404,0.0191895,-0.00850688,0.00283218,-0.00366814,
-0.0114802,-0.00677994,-0.00411787,-0.00270768,0.00104877,-0.0082206,0.00148082,0.00553365,0.00339093,-0.00428862,0.00343606,-0.0223416,
-0.0217881,-0.00195466,-0.00378942,0.00212591,0.00298359,-0.00436017,0.00669956,0.0184043,-0.00983106,-0.0100502,0.00275268,-0.0236302,
-0.0240511,-0.00646583,-0.00635852,0.000842722,0.00588412,-0.00822703,7.14305e-06,0.0132463,-0.0075988,-0.00422172,0.00657707,-0.0130067,
-0.0173035,0.00254445,-0.00442052,0.000525497,0.00363351,-0.00887517,0.00490521,0.0151712,-0.0111605,-0.0109487,0.00589491,-0.0165485,
-0.0189299,0.00254023,-0.00280455,0.000852306,0.00395837,-0.00662655,0.0043307,0.0135551,-0.00216551,0.000675124,0.00617926,-0.0126853,
-0.0228134,0.00317977,-0.010525,0.00375481,0.00460512,-0.00341283,-0.00171651,0.0116172,-0.00894471,-0.00186635,0.00549851,-0.019124,
-0.0231588,0.00446307,0.000105124,0.000540581,0.00203241,-0.00631675,0.00125083,0.00646009,-0.0176546,9.94476e-05,0.007716,-0.020733,
-0.0173903,0.00703402,0.000433012,0.00827256,0.00525461,-0.000850915,-0.0035084,0.00838596,-0.0112323,0.00142142,-0.00551893,-0.0191219,
-0.00582981,0.00896096,-0.00342444,0.00119538,-0.00343507,-0.00246854,-0.0050483,-0.00256565,-0.00577481,0.00274343,-0.0123142,-0.0178321,
-0.00908132,0.0124975,-0.00019926,0.0012011,0.00075289,0.00106419,-0.00433484,0.00225809,0.000971422,-0.00494895,-0.0100942,-0.00527343,
-0.00332093,0.00186834,-0.000837463,0.00313866,-0.00149803,-0.00216459,-0.00523145,0.000965069,0.00546508,0.000880191,-0.00433197,0.00503275,
0.0053347,0.00540447,-0.000187968,0.00282278,0.00365569,-0.00378436,-0.00290911,0.00256965,0.00191124,-0.00391482,-0.00500761,0.00664775,
0.0162419,0.000569864,0.000783409,0.00476067,0.00430218,-0.00572678,-0.000587375,0.000311025,0.00737285,0.00223609,0.00172242,0.00633253,
0.0104064,-0.00587473,-0.00404022,0.00412317,0.00527057,-0.00573823,-0.00953432,0.00320353,0.00349925,-0.00255915,0.000404972,0.00537503,
0.016803,-0.0110319,0.00143825,0.00123221,0.000443954,-0.00188704,-0.00914578,0.00416441,0.00670949,5.01124e-05,0.00617137,0.0237358,
0.0183692,-0.0200527,0.0030534,0.00156079,0.00270001,-0.000612027,-0.0122995,-2.5786e-05,0.00348203,8.36521e-05,0.0045343,0.039523,
0.0237975,-0.0232789,-0.000804491,-0.00519325,0.000448804,-0.00416676,-0.0132007,-0.0109768,-0.001354,-0.000526907,9.76251e-07,0.0533806,
0.0147373,-0.0242519,0.00499588,-0.00132313,0.00109499,0.00258006,-0.0160347,-0.0142013,0.00346938,0.000793944,0.00416138,0.0540407,
0.0101835,-0.0310202,-0.00626668,-0.00582344,-0.00437581,-0.000331943,-0.0133968,-0.0187137,0.0044306,0.00211453,0.00993283,0.0569566,
0.0120678,-0.0284525,0.000821471,-0.000665436,0.00238706,-2.50536e-05,-0.0130138,-0.018397,0.00829046,-0.00139432,0.0128082,0.0630941,
0.0113759,-0.0294264,-0.00174862,-0.00484372,-0.00437175,-0.0022942,-0.00876871,-0.0138953,0.0279266,0.000569524,0.0166508,0.0669802,
0.0116493,-0.0233178,0.00147628,-0.00419284,0.00013726,0.000587251,-0.00806633,-0.012935,0.0353301,-0.00487165,0.0179193,0.0486542,
0.0112784,-0.0175311,-0.00173762,-0.00128834,-0.00147078,-0.00297058,-0.00800918,-0.00746751,0.0408031,-0.00194272,0.0204769,0.0415981,
0.0131608,-0.0101345,-0.00430758,-0.00095936,0.00110627,-0.00073386,-0.0121386,-0.00103427,0.0340432,-0.000623907,0.0191728,0.0271388,
0.0102138,-0.00660106,-0.00237028,-0.0048156,0.00303926,-0.00751189,-0.00146012,-0.00232759,0.0308256,-0.00381271,0.0130408,0.0200856,
0.010486,0.00530339,0.00407429,0.00195228,0.00625984,-0.00109064,-0.00398258,-0.00329888,0.0253552,0.00330018,0.0040128,0.00176542,
-0.00115374,0.000145541,-0.00654396,-0.000938079,0.00207556,-0.00368407,-0.00360892,-0.000406721,0.00765163,0.00139823,0.000780995,-0.00592997,
-0.000881747,0.00464677,0.000544716,0.00357627,-0.000499232,-0.00241445,-0.000339118,0.00956837,-0.0110174,-0.00372364,0.00237955,-0.0207077,
-0.00318535,0.00399791,-0.00363444,0.000685993,0.00336459,-0.0046864,-0.0012559,0.0134268,-0.019706,0.00306584,0.00494509,-0.0309781,
0.000949889,0.0120427,0.000235116,-0.00477978,0.00433067,-0.00277327,-0.00861283,0.0143881,-0.0190583,0.00116235,-0.000214893,-0.0702236,
-0.0113339,0.0136499,-0.00136816,0.00102247,0.00207705,-0.00246996,-0.00566892,0.0217886,-0.0248497,-0.000419758,9.91564e-05,-0.0798508,
-0.0055888,0.0191219,0.000248195,-0.00122378,0.000788957,8.6892e-05,-0.0123845,0.0304773,-0.0567186,0.00250475,-0.0037711,-0.0753132,
-0.00724824,0.0188006,0.00186478,-0.00186026,0.00432965,-0.00250732,-0.00268235,0.0230692,-0.0853686,-0.00133213,-0.000879702,-0.0353628,
-0.00407835,0.0265296,0.00348163,0.00362022,0.000465313,0.00198125,-0.00263964,0.0259636,-0.080859,0.00126921,-0.00152887,-0.0153737,
-0.01282,0.0188072,0.00220128,-0.00248914,-0.00275554,3.11026e-05,-0.00388585,0.0134051,-0.0599309,6.59764e-06,0.00361765,-0.00697529,
-0.00546425,0.021067,0.00414064,0.00395732,-0.00146965,0.00355415,0.00259344,0.0172659,-0.0441543,-0.0028664,0.00264793,-0.00630437,
-0.00454688,0.0181777,0.0012512,-0.00247383,-0.000184226,0.00321413,0.000379222,0.00728336,-0.0319194,-0.0034865,0.00296656,-0.00177101,
0.00957064,0.0236609,0.00254734,-0.00665129,-0.000509013,0.005128,0.0058906,-0.00398692,-0.0200065,-0.00732674,-0.00154343,-0.00657481,
-0.00432017,0.0233512,0.00223411,-0.00342399,-0.0101706,0.00350086,0.00238663,-0.0107501,-4.5027e-05,-0.00408499,-0.00154579,-0.00236506,
0.000140429,0.0252972,-0.00129819,0.000769243,-0.00695517,0.00573741,-0.000796329,-0.0181572,0.013156,-0.0047073,-0.00991828,-0.00427301,
0.0097529,0.0188748,0.00257455,-0.00051042,-0.010501,0.00443303,0.00406838,-0.0197697,0.0260356,-0.00372065,-0.00831027,-0.00103067,
0.00681051,0.0140641,0.00451601,0.00110753,-0.00310149,0.00667049,0.00474699,-0.0197728,0.0331211,-0.00788584,-0.0157164,-0.00133044,
-0.000960033,0.00957723,0.00162871,-0.00403516,-0.00600468,0.00375738,0.00381508,-0.0300785,0.0456805,-0.0091543,-0.025054,-0.00485034,
0.000928729,0.0092775,0.00582453,0.00241224,0.0023595,0.00760559,0.00932123,-0.0262191,0.0279785,-0.0101016,-0.0160408,-0.00515152,
0.000243078,0.00350653,0.000684402,0.00209903,-0.00279848,0.000830275,0.00452448,-0.0313745,0.0105996,-0.00300102,-0.0160419,0.00227327,
0.0108266,0.00063472,0.000695727,0.00403961,-0.000874334,0.00113826,0.00713166,-0.0313792,-0.00259265,-0.00169614,-0.00735038,0.00937551,
0.00756787,-0.00255744,0.00199519,0.00501458,-0.000882427,0.000159062,0.00877229,-0.0300966,0.00578663,0.0021836,-0.00541954,0.01197,
0.00302271,-0.00671394,-0.00056828,0.00566782,0.000718607,-0.000819527,0.0088025,-0.0239851,0.0032214,0.00026774,-0.00413243,0.025188,
0.00652749,-0.000244968,0.000409968,0.00277993,0.00167518,0.00303163,0.00593452,-0.0156202,0.010316,0.00414621,0.000374273,0.0432346,
0.0061704,-0.00311101,0.00203245,0.00600915,0.00391895,0.0020543,0.00596329,-0.00596762,0.00839791,0.0102777,0.00359341,0.0474372,
0.0135414,-0.00179061,-0.00278357,-0.00106355,0.00229885,0.00300927,0.0050255,-0.00790488,0.00744737,0.00932587,0.000373937,0.0320007,
0.0118996,-0.00207879,0.00495649,0.00860494,0.00132208,0.00460877,0.00408695,0.00142606,0.000703662,0.000968837,0.00262774,0.0197829,
0.017664,-0.00687313,-0.00404412,0.00249848,-0.00319663,0.00298952,0.00121596,0.00270882,-0.0060382,0.00098175,0.00101852,-0.00982055,
0.0247177,-7.66049e-05,0.0046624,0.00444075,0.00065459,0.00555618,0.00317329,0.00946513,-0.00794904,-0.00383501,-0.00220009,-0.0226839,
0.0272658,-0.0016497,0.0024232,0.000910178,-0.00289942,0.0020066,0.00770531,0.0123588,0.0010881,0.00293762,0.00359601,-0.0194513,
0.015328,-0.00193424,0.00533535,-0.0006886,-0.00259069,-0.000898434,0.0019343,0.0101023,0.0020787,-0.00284602,0.00617305,-0.0101029,
0.00789898,0.00389883,0.00309671,0.000288279,-0.00485807,0.000382432,0.0048548,0.016861,0.0124077,0.00328167,0.00198968,0.00020999,
0.00433464,0.00200594,0.00472163,0.000621369,-0.00809182,0.00198589,0.00197939,0.017504,0.0121147,0.0110186,0.00102614,-0.0155558,
0.00463497,0.00204526,0.00119571,-0.00805984,-0.00327756,-0.000273324,0.00811733,0.0152507,0.00828259,0.0232621,0.00102883,-0.0335765,
-0.00794111,0.00723614,0.00121135,0.00193163,-0.00297103,0.00294111,0.00684955,0.0155741,0.0189401,0.0181203,0.00360749,-0.0528866,
-0.0134333,0.00115945,-0.00553361,-0.00385202,-0.002665,-0.00189239,0.00493675,0.00785039,0.0250926,0.0100804,0.0032891,-0.051272,
-0.0121635,0.00248773,0.00253091,-0.00287487,-0.00396916,0.00325492,0.00366665,0.0142935,0.0312473,0.00397161,0.00812223,-0.0445078,
-0.0108927,0.0034943,0.00061534,-0.00576103,0.000843117,0.0035737,-0.000502179,0.0197723,0.0319313,0.00236935,0.0100583,-0.0245454,
-0.0215327,0.00675458,0.003529,-0.00510583,-0.000783872,0.00389307,0.000800671,0.0159162,0.0200617,0.00108832,0.00169273,0.00378611,
-0.024767,0.0116246,0.00225747,-0.00026541,-0.00241126,0.000671637,0.00145824,0.0139933,0.0127015,-0.000515428,0.00556137,0.0330822,
-0.0170544,0.00876796,-0.000623728,6.78034e-05,-0.0024293,0.0038896,-0.00239286,0.0127158,0.00437739,-0.00115418,0.00331352,0.0324366,
-0.0093408,0.0071989,0.000358374,-0.00056483,0.000449803,-0.00094047,-0.00366998,0.0114398,-0.0116714,-0.00597907,0.00364161,0.0218097,
-0.0112845,0.00337593,0.00198433,0.00266582,-0.000212755,0.00453211,-0.00913395,0.0127408,-0.0112993,-0.000180833,-0.00279069,0.00152361,
-0.0145149,-0.00109136,-0.0018628,-0.00247405,-0.004095,-0.00158474,-0.0075169,0.000843674,-0.0202618,-0.00500769,0.00558668,-0.0161878,
-0.00937378,0.00184545,-0.000558953,0.00365402,-0.000250859,0.00227906,-0.000106634,0.00858639,-0.0256813,-0.00726009,0.000442828,-0.0210225,
-0.00648513,-0.00358892,-0.00279661,0.00463099,-0.000270215,-0.00480275,-0.00493197,0.00763803,-0.0349626,-0.00726,-0.000193539,-0.0107266,
0.00316548,-0.00290723,0.000760532,0.000456856,-0.000611665,0.000671582,-0.0062178,0.00121795,-0.0365157,-0.0143438,-0.00533682,-0.00848001,
0.00476878,-0.00448008,0.00141999,0.00433123,0.000334543,-0.00801917,-0.000744755,0.00477932,-0.0264774,-0.020463,-0.00339713,-0.00526822,
0.0173194,-0.00283461,-0.00564738,0.00595196,0.000636795,0.00196307,-0.00589774,0.00125913,-0.0209448,-0.0275492,-0.00145722,-0.0030228,
0.0186035,-0.00440976,-0.000803163,0.00499708,-0.00163652,-0.0006101,-0.0033261,0.00417889,-0.0118692,-0.0304514,0.00531202,0.00662686,
0.019245,-0.0104934,-0.000788361,0.00436406,0.000919302,0.00550947,-0.00912698,-0.00416829,-0.0108405,-0.0214429,0.00306706,0.00211073,
0.0176345,-0.00724221,-0.00238358,-0.00238597,-0.000710074,-0.000282525,-0.00720331,-0.00285625,-0.000151865,-0.0140452,0.00275391,-0.00498117,
0.0121621,-0.00463642,0.000206102,0.00309767,0.00474336,0.00294012,-0.00528171,-0.00250914,0.00731919,0.00011211,-0.00464185,-0.00917573,
0.01313,-0.0107247,-0.00460924,-0.000755185,-0.00107105,-0.00349525,-0.00529386,-0.00119539,0.0128605,0.00943934,-0.0059206,-0.0165897,
0.0186065,-0.00586873,-8.86489e-05,0.00150867,0.000197436,0.00326922,-0.00595199,-0.000846705,0.0167941,0.016834,-0.00494568,-0.0120918,
0.00991891,-0.0167897,-0.00136342,0.00184066,0.00178806,-0.0005902,-0.00435865,0.000146556,0.030388,0.00780882,-0.00107323,0.00753761,
0.00734962,-0.0122594,-0.00135084,0.00506987,0.0024131,-0.00187392,-0.00856237,-0.00562034,0.0294966,0.0074753,0.00183343,0.0168652,
0.00735716,-0.0157796,-0.00101676,0.000250249,-0.00404432,-0.00251361,-0.00536353,-0.00848919,0.0479239,0.00424359,0.00280846,0.0203983,
0.00382458,-0.0189798,-0.00261479,0.00283497,0.00269819,0.00425148,-0.0160103,-0.0139331,0.0689288,0.0126011,0.000564074,0.000430239,
-0.00646764,-0.0183188,-0.000671922,-0.00456086,0.00171444,-0.000573242,-0.0134595,-0.0187326,0.0757704,0.00679261,-0.00554362,-0.0179275,
-0.00838827,-0.0147623,0.00481182,0.00285225,0.00556019,-0.00378818,-0.0157399,-0.0138734,0.0816481,0.00516875,-0.00456863,-0.0195434,
-0.00129351,-0.016359,-0.00580203,-0.00164693,0.00167974,-0.00990056,-0.0202758,-0.0164185,0.068533,0.00225656,-0.00681309,-0.0034516,
0.0196457,-0.0095872,0.00515372,0.00254586,0.00391662,-0.00442299,-0.0183749,-0.0073733,0.0509121,-1.22875e-05,-0.00583818,0.0145729,
0.0148304,-0.010866,-0.00159786,-0.00388594,0.00196872,-0.00602813,-0.0235585,-0.00412263,0.0368339,-0.00195971,-0.00486333,0.0284132,
0.0190303,-0.00345428,0.0022741,-0.00774275,0.00517237,-0.00216024,-0.0245587,-0.00248123,0.0156737,-0.000688216,-0.00388852,0.0171433,
0.0171141,-0.000229742,-0.000293324,-0.00580518,0.00419127,-0.00183372,-0.0233068,0.00398975,-0.00580812,-0.00649993,-0.00033822,0.00877228,
0.0206714,9.54578e-05,-0.00479297,-0.00547792,0.00675204,-0.000541355,-0.0255978,0.0082076,-0.0147342,-0.012634,0.00385593,0.0123145,
0.0129612,-0.00505416,-0.00575184,-0.00933653,0.00190868,-0.00182452,-0.0201635,0.00502129,-0.0310654,-0.0235977,0.000645394,0.0123169,
0.00396353,-0.00280086,-0.00510159,-0.00385946,0.00253886,-0.000210202,-0.0115109,0.00666461,-0.0348418,-0.0258694,-0.00127739,0.0190816,
0.000117105,-0.000871182,-0.0102469,-0.00514383,0.00252568,-0.00696636,-0.00446894,-0.0042473,-0.0209126,-0.018805,0.00291672,0.019731,
-0.0011538,0.00620794,-0.00476872,-0.00063389,0.00283498,-0.00503005,0.0028943,0.00319201,-0.00312167,-0.016892,-0.00222548,0.0194162,
-0.0140148,0.00137365,-0.00476415,-0.00513898,0.000247328,-0.00599119,0.00414018,0.000329706,0.00436511,-0.0104719,-0.00060689,0.0168495,
-0.0191495,0.00265476,-0.00315045,-0.002562,0.00248933,-0.000191499,0.0179416,0.002619,0.000903572,-0.0156417,0.00197754,0.0155721,
-0.0265383,0.00490025,-0.00507866,-0.000951482,0.000224656,0.00142302,0.0214408,0.00619659,-0.0209113,-0.00568015,0.00263035,0.0123646,
-0.0191184,0.00617853,-0.00314412,0.00130228,-0.00236145,-0.00114761,0.026228,0.0120283,-0.0636553,-0.00344495,-0.00251176,0.00626121,
-0.0158845,0.010031,0.00136545,-0.00352731,-0.00591288,0.00207682,0.0310155,0.00594868,-0.0806472,0.00619532,-0.00314665,-0.00145043,
-0.0264949,0.0048678,7.95824e-05,-0.00191867,0.0021261,0.00401363,0.0370913,0.0117814,-0.0680239,0.00971926,-0.00474731,0.000175679,
-0.0222969,0.00968354,0.00136879,-0.0015984,0.000829251,-0.000166303,0.0389826,0.00699054,-0.0489655,0.0158194,-0.00151879,-0.00141628,
-0.0251825,0.00999085,0.00104786,0.00387235,0.00661562,0.00177084,0.0434501,0.0108925,-0.0205745,0.0209546,0.00235368,-0.00107528,
-0.0184109,0.00739948,-0.000883186,-0.00192544,-0.00240686,0.000166802,0.0318212,0.0067464,0.00169579,0.035749,-0.00214425,-0.00588413,
-0.0245178,0.00609466,0.00362423,0.000968641,0.000804927,0.0056457,0.032427,0.00582002,0.0101186,0.0408863,-0.00149101,-0.000711589,
-0.0228992,0.00446671,0.0020144,0.00128664,-0.000489999,-0.000465099,0.0298142,0.00585977,0.0204692,0.0418394,-0.00180348,0.00220848,
-0.0193498,0.00154979,-0.000883523,-0.00161532,-0.000174754,0.00147288,0.0243046,-0.00794377,0.0179381,0.0386084,0.00174748,-0.00195312,
-0.0125818,0.00442661,-0.000240392,-0.00162032,-0.00307848,0.00212334,0.0194396,-0.00693781,0.0105738,0.033125,-0.00339384,-0.00643564,
-0.0196581,-0.00139021,0.00104634,-0.00323553,0.000779031,0.00406181,0.0119995,-0.00850728,-0.00452123,0.0292524,-0.00113032,-0.0105953,
-0.00677465,0.000196397,0.00168892,-0.00485124,-0.00405545,0.000205573,0.0122866,-0.0174814,-0.0382932,0.0176542,-0.0017641,-0.014432,
-0.0016184,0.00242565,0.00200932,-0.00292606,-0.0011629,0.00214455,0.00935449,-0.0174411,-0.0492115,0.0115299,-0.000466005,-0.0015269,
0.00772264,-0.000497419,-0.00571905,-0.00583046,-0.00148932,-0.000745344,0.00803227,-0.016757,-0.0414616,-0.000710418,-0.00206516,0.000111084,
0.00611732,0.00301708,0.00264947,-0.00133062,-0.00149337,0.00698911,0.00445646,-0.0122096,-0.0275992,-0.00554544,-0.00205435,0.00239378,
0.00386789,0.00137923,0.00361315,0.000271353,-0.00214087,0.00120225,0.00570963,-0.00476472,-0.0182483,-0.00716051,-0.00622849,0.00532118,
0.00709136,0.00038397,0.0032889,-0.00231229,0.00268508,-0.001043,0.00277722,-0.00665624,-0.0143747,-0.0136043,-0.00814873,0.000200799,
0.015144,0.00421652,0.00393033,0.00218647,-0.0053662,0.000575312,0.00724899,0.00432991,-0.0117931,-0.0155406,-0.00427367,0.00699303,
0.0119287,0.0016089,0.00263997,0.00153386,-0.00247101,0.00315968,-0.00147955,0.010165,-0.0191958,-0.0116818,-0.00683706,0.00058636,
0.0180498,0.00254127,0.00489086,-0.00298231,-0.00247285,-0.00391397,9.3212e-05,0.00923934,-0.0443094,-0.0113643,-0.00199534,0.00319476,
0.0219177,0.00250645,0.00746357,0.00151565,0.000101313,-0.00165109,0.000699108,0.0173281,-0.0468909,-0.00975908,-0.00262616,0.00902322,
0.0228883,-0.0030028,5.59722e-05,-0.00235707,-0.000543472,-0.00164158,-0.0070667,0.0193,-0.0365985,-0.00944168,0.000928816,0.0100232,
0.0232153,-0.00819155,0.00713565,0.0018186,-0.00150971,0.00255339,-0.019663,0.026101,-0.0201927,-0.00461724,-0.00163251,0.00394094,
0.00680174,-0.0211084,0.00423499,0.00084306,-0.00344128,-1.22167e-05,-0.0267879,0.0306485,-0.00829733,-0.00108079,-0.00515901,0.00912719,
0.00616361,-0.0272658,0.00165615,-0.00528364,0.00364203,-0.00289956,-0.0277976,0.0290789,0.00101945,-0.00559315,-0.00288984,0.00916281,
-0.00155695,-0.0289176,0.00294047,0.000823382,0.00299927,-0.00160146,-0.0323506,0.0258995,0.00421658,-0.0046328,0.00259952,0.019179,
-0.00863335,-0.0305708,-0.00575559,0.00145737,0.00364482,0.00130655,-0.0398029,0.0201443,0.00612345,-0.0043167,-0.00800738,0.0240444,
-0.0198947,-0.0299718,0.00132334,0.000803595,0.00171538,-0.00125826,-0.0392087,0.0137448,0.00384287,-0.0056107,-0.00219433,0.0350269,
-0.0189221,-0.0239011,-0.000290371,0.00079375,0.00204009,0.0029379,-0.0485968,0.00863247,0.008965,-0.00561737,-0.00378497,0.0405364,
-0.0095787,-0.0184754,-0.00383595,-0.00211349,0.00429703,-0.00188012,-0.0557333,-0.00356332,0.0169829,-0.0056245,0.00267399,0.0444361,
-0.000235053,-0.0169141,0.00195456,0.00334987,0.00333511,0.00263836,-0.0586866,-0.00352624,0.027253,0.0020945,0.00205135,0.022902,
-0.00666627,-0.0205047,-0.00287925,0.00334036,0.000120158,7.43033e-05,-0.0642172,-0.00735358,0.0323707,0.00723745,-0.00372117,0.00523079,
0.00943877,-0.0154036,-0.000630602,0.000111617,0.00688598,0.00362733,-0.0613791,-0.0140797,0.0278292,0.00594103,-0.00498523,-0.0198459,
0.021037,-0.00933722,8.07193e-06,0.00171221,0.00431604,-0.00505327,-0.0533914,-0.0130806,0.0351987,-0.00243867,-0.000774927,-0.0259291,
0.0313478,-5.16994e-05,-0.00579237,0.00395693,-0.000506945,-0.000212137,-0.0489462,-0.0117612,0.0419236,-0.0153261,-0.00107039,-0.0210675,
0.0287813,0.00858984,0.00192846,0.00427025,-0.00146609,0.0010878,-0.0406386,-0.00142912,0.0518674,-0.0214535,0.00571839,-0.0200707,
0.0258932,0.0104707,-0.00161897,0.0055497,0.00369219,0.00270984,-0.0326535,0.00407191,0.0524743,-0.0285472,0.00381631,-0.0300217,
0.0210738,0.0168591,-0.00194727,6.86627e-05,-0.000163406,-0.00307263,-0.0146882,0.00345403,0.0485736,-0.0349977,0.00738892,-0.0422282,
0.0181863,0.0274332,-0.00356366,0.00907534,0.00885917,-0.00273805,-0.000907697,0.0034779,0.0433845,-0.0298589,0.00903161,-0.04671,
0.00564066,0.0228768,-0.00936559,0.00101943,0.00275095,-0.00336915,0.00385924,-0.00422713,0.0356194,-0.0192476,0.00584697,-0.0383164,
0.00790437,0.0260479,-0.00357791,0.00294406,0.00823309,-0.00142456,0.0202174,-0.00324215,0.0201269,-0.00316367,0.00942498,-0.035398,
0.00566081,0.0224591,-0.00712685,0.00583486,0.000194081,-0.00559672,0.033036,-0.00451333,0.0126821,0.00390553,0.0023808,-0.036989,
0.0140411,0.0121107,-0.00520306,0.000677455,0.00342343,-0.0071932,0.03974,-0.0154454,0.00330462,0.0203108,0.00757238,-0.0408358,
0.00535816,0.0149631,-0.00682089,0.00421283,-0.00397095,-0.000419018,0.0445149,-0.0189757,-0.0018888,0.0318869,0.00471741,-0.0334168,
0.00182577,0.00719266,-0.000712354,0.00130969,-0.000740938,0.00506757,0.0454295,-0.0202553,-0.032839,0.0238245,0.00540582,-0.0247122,
0.0018341,0.00425269,-0.0036184,-0.00416865,-0.00459337,0.00153997,0.0473134,-0.0225038,-0.0711954,0.00578195,0.00513046,-0.0179413,
0.000231923,0.000992162,0.000236159,0.000977419,-0.00232866,-0.000377711,0.0456595,-0.0147751,-0.0770373,0.000295221,0.0109741,0.00556874,
-8.34389e-05,-0.00419858,-0.00234826,-0.0022467,-0.00682452,0.00575337,0.0385365,-0.0192834,-0.0642084,-0.00197195,0.0023324,0.0197408,
-0.00200962,-0.0068123,0.0034377,0.00354387,-0.00101804,0.00158253,0.0391442,-0.017678,-0.0558884,-0.00649255,0.00399497,0.0413158,
-0.00908813,-0.0116781,-0.00397602,0.00128618,-0.0035819,0.000953273,0.0355709,-0.0167197,-0.0343706,-0.00521799,0.000186628,0.0374561,
-0.00876339,-0.0107473,-0.000121812,-0.00193704,0.001581,-0.00386099,0.0355434,-0.019306,-0.0254102,-0.00909425,0.00346312,0.0171759,
-0.0068305,-0.00788317,0.000834927,0.000634969,-0.00484589,0.00259294,0.0332667,-0.0170663,-0.0148416,-0.0113605,0.00641979,0.00429903,
-0.0190648,-0.00855866,0.00179171,0.00159754,-0.00483382,0.00293022,0.0271313,-0.0132201,-0.0042743,-0.00750952,0.0035836,0.00719609,
-0.0152037,-0.00633484,-0.00175862,-0.00452234,-0.00321196,0.0029458,0.0277612,-0.0164598,0.00790152,-0.00204841,0.00235922,-0.00375158,
-0.0119885,0.00297364,-0.000801637,-0.00130566,-0.00159,0.00231774,0.0316151,-0.0110101,0.0255493,0.00598873,0.00467829,-0.00729578,
-0.00845337,0.00584532,-0.00338586,-0.00388368,-0.00447515,0.00394351,0.0258152,-0.0210166,0.0370794,0.00823147,0.00184836,-0.0208214,
-0.0155444,0.0154799,0.00207865,-0.000344557,-0.00349692,0.00782312,0.0238831,-0.0162166,0.0292924,0.00789931,0.00545932,-0.0253337,
-0.0178086,0.0199657,-0.000505147,-2.46147e-05,-0.00251861,0.00365439,0.0203457,-0.0120634,0.00637341,0.00628006,0.005209,-0.0346762,
-0.0162116,0.0250976,0.00367211,-0.00163608,-0.00121828,0.00173948,0.0277586,-0.0104883,-0.00624384,0.00788098,0.00624846,-0.0469171,
-0.0113976,0.0273344,0.0072058,-0.000349829,0.0013699,0.00465388,0.0264832,-0.00730607,-0.00405215,0.00594133,0.00857765,-0.0466032,
-0.0204293,0.021847,0.00301322,-0.000994987,-0.00602202,0.00692457,0.0229581,-0.00444816,-0.00153881,0.0104414,0.00962101,-0.0379195,
-0.0178735,0.0240886,0.00429404,0.00157952,0.00236131,0.00211268,0.0236221,0.000661111,-0.00160121,0.0117228,0.0116321,-0.00831001,
-0.0198272,0.018606,0.00557526,0.00479816,0.00527174,0.00084227,0.0204264,0.00737801,0.00219958,0.0175124,0.00334284,0.0164701,
-0.0130908,0.0131257,0.00234973,0.000934314,0.0075384,-0.0030036,0.0101514,0.00250307,-0.00365791,0.0152543,0.00310391,0.0303041,
-0.020844,0.0140866,0.00234405,0.00286567,0.00207857,0.00216495,0.00728414,0.00631879,-0.00468619,0.0129971,0.00286668,0.0370556,
-0.0234484,0.0115084,0.00620215,-0.000675749,0.000482172,-0.00329058,-0.00169714,-0.00113509,-0.00313877,0.0120285,0.00327496,0.0405881,
-0.0270208,0.0156931,0.00104633,-0.00453888,0.00468084,0.00155602,-0.00166144,-0.00182967,0.0013064,0.00751948,0.0014312,0.0360727,
-0.025766,0.013763,0.0058712,-0.000997117,0.00437243,-0.00357764,-0.000335629,-0.00123783,0.0015667,0.00172346,0.00216444,0.0286605,
-0.026123,0.00571792,-0.0012153,-0.00131844,-0.00173083,0.00223464,-0.0122073,-0.00579826,0.00279329,-0.00374986,0.00225518,0.0193174,
-0.0325985,0.00701102,0.00296665,-0.00131759,0.000536478,-0.000967568,-0.0134532,-0.00134536,0.0114251,-0.00729081,0.00331306,0.017058,
-0.0229786,-0.0042499,0.00328579,0.00254678,0.00280386,-0.000628565,-0.0140535,0.00246275,0.0113652,-0.00986528,-0.00238862,0.0112581,
-0.019477,-0.00488515,0.00135181,-0.00163718,0.000886061,-0.00930412,-0.0111111,0.00562623,0.00068189,-0.018878,0.00124716,0.0247757,
-0.0159765,-4.59198e-05,0.00134996,0.00158375,-0.0010317,0.00230247,-0.0104212,0.00621356,-0.0119322,-0.0146904,0.00134262,0.0424796,
-0.0147306,-0.00486362,0.000704703,0.00126354,-0.0019836,-0.00411992,-0.012306,0.00744433,-0.0135994,-0.00663898,0.00369264,0.0399021,
-0.00608069,-0.00259738,0.000703792,0.00351908,0.00189364,-0.000240421,-0.00871698,0.00803088,-0.0142997,0.00141302,0.00218023,0.0247698,
0.00611019,-8.11189e-06,-0.000262491,0.00255542,0.000619801,-0.00891693,-0.0060933,0.0121586,-0.00276517,0.00978755,-0.00222888,0.0138236,
0.0195887,-0.00321282,-0.00155027,0.000626138,-0.00322959,-0.00600382,-0.0089423,0.00276471,7.8153e-05,0.0146213,-0.00631535,0.00609753,
0.01858,-0.000943662,0.00295735,0.000950657,-0.00192794,-0.00148129,-0.0140447,0.0120435,0.00742998,0.00529019,-0.00203073,0.00642068,
0.0252983,-0.00414677,0.0013485,0.000631485,0.00291503,0.000787335,-0.0239763,0.0152055,0.00480304,0.00272043,-0.00579415,-0.00613333,
0.0246126,-0.00187623,0.000705889,-0.00161915,0.00325074,-0.00660261,-0.0232839,0.0132167,0.00604094,-0.00725346,-0.00826936,-0.00645315,
0.0242496,-0.00153682,-0.000902137,-6.31567e-06,0.0029425,0.00113841,-0.0177627,0.0141257,0.0108218,-0.00595886,-0.00333955,-0.0119238,
0.0161611,-0.00538224,-0.00444142,0.00031892,-0.000585246,-0.00110108,-0.0238318,0.0166449,0.00594624,-0.00981482,-0.00549219,-0.0141749,
0.0190199,0.0010748,0.00264377,0.00064431,0.00232573,0.00309796,-0.0212089,0.0146573,0.00396993,-0.00658757,8.20058e-05,-0.0218989,
0.0212361,0.00270292,0.00232467,-0.000961805,-0.00281197,-0.00107379,-0.0208401,0.0168554,0.00682467,-0.00239401,-0.00271414,-0.0276914,
0.0340779,0.00239949,0.00136205,-0.00128001,0.00106456,0.000227156,-0.0182184,0.00360081,0.000345079,0.00115617,-0.00583213,-0.0379912,
0.0240634,0.000164418,0.00329727,0.00323103,-0.00407346,0.0015278,-0.0155972,0.00419027,-0.000659436,0.00438489,-0.00154542,-0.0254333,
0.0217772,-0.00174881,8.17525e-05,0.000981417,0.000124643,-6.93385e-05,-0.0174839,0.0018828,-0.00069599,0.00439469,-0.0024098,-0.0154511,
0.0214244,-0.0078475,0.000407922,-0.0028778,0.000459241,-0.00295455,-0.0151859,-0.00267773,0.00377685,-0.00171191,0.000267119,-0.0045032,
0.0220392,-0.0136245,0.00363188,0.00131163,0.00304721,-0.00423036,-0.0087033,0.000166944,0.00599837,0.00119636,0.00262197,-0.000960159,
0.0152511,-0.0213336,-0.0040899,-0.00512293,-0.00112585,-0.00132123,-0.0141331,-0.0101875,0.00725641,0.000885707,-0.00435966,0.00644606,
0.012972,-0.0255019,-0.00118732,0.000354432,0.00210551,0.000621785,-0.00765152,-0.0124928,0.0123802,0.00154136,0.000248403,0.00934501,
0.0168115,-0.0312803,-0.00536721,0.00132468,-0.0014242,0.00127674,-0.00310205,-0.017373,0.0101017,0.00380722,-0.00158264,0.0144975,
0.0270916,-0.0232159,0.00172111,-0.00414384,0.00406017,0.00128752,-0.000484602,-0.0219308,0.00589409,0.000600531,0.00109318,0.0128892,
0.0187007,-0.0161178,0.000117222,0.000367904,-0.00204569,0.00451744,-0.00108688,-0.0300293,0.00877174,0.00125762,-0.000416597,0.00999301,
0.0157844,-0.0141714,-0.00470587,-0.00123719,-0.00300082,0.00420572,0.00346168,-0.0310444,0.00328147,0.00320293,-0.00418038,0.00162382,
0.0160891,-0.0077184,0.00399282,-0.000588646,-0.00073689,0.000996242,0.00640037,-0.0304489,0.00133514,0.00128539,0.000425873,0.00838584,
0.0196145,-0.00480723,0.000457899,0.00134772,-0.000726934,4.0081e-05,0.00644149,-0.0259893,0.00776191,0.00129993,-0.00333886,0.019655,
0.018312,-0.000286809,0.00207424,0.00360609,-0.00329291,-0.000594423,0.00873619,-0.0318307,0.010328,0.000992939,-0.00388472,0.0296362,
0.00896207,0.00230157,0.00369076,0.00328896,-0.00489348,0.0042438,0.0145723,-0.02093,0.0177258,0.000686353,0.000397971,0.0418709,
0.0102372,-0.00090536,0.000800242,0.00490352,-0.00424087,6.73447e-05,0.00914046,-0.0119594,0.0257702,0.00134597,0.0043581,0.0376864,
0.0124789,0.000394616,0.00241706,0.0010451,-4.73422e-05,0.0013636,0.0107915,-0.00298718,0.0267344,0.00297178,0.00702981,0.0299601,
0.00989199,0.00748931,0.00113652,0.00394747,-0.00390281,0.00201566,0.0150182,0.00244558,0.0293108,0.0103929,0.00229615,0.00967757,
-0.00750383,0.00428169,-0.00143168,0.0010549,0.000933722,-0.000552022,0.0128062,0.0088463,0.0277045,0.00332692,0.00657612,0.00098429,
-0.0100901,0.00719083,0.00694623,0.00460114,-0.000669039,0.00235297,0.0154236,0.017503,0.0335052,0.0036659,0.00892364,-0.00288071,
-0.00977896,0.00655853,0.00437818,0.00524987,-0.000984481,0.00107237,0.0132119,0.0226209,0.0280402,0.00239543,0.0109484,-0.0048151,
-0.0107558,0.0107553,0.000200446,-0.00150614,-0.00130037,-0.003428,0.00778091,0.026132,0.024187,-0.00145038,0.0078211,-0.0180187,
-0.0255765,0.00980098,0.0027835,0.00268379,-0.00193866,0.0017295,0.0103986,0.0364068,0.0216235,0.000820886,0.00823419,-0.0193118,
-0.0230128,0.00562724,0.000537396,0.00204448,-0.0041871,-0.00277164,0.0062555,0.0408898,0.00264261,0.00373616,0.00768039,-0.035094,
-0.0249571,0.0107898,0.000544826,-0.00149247,-0.0019288,0.000131482,0.00758542,0.0456981,-0.0111857,-0.0026848,0.00487182,-0.0380001,
-0.0149903,0.0146647,-0.000413665,-0.000200472,-0.000958712,-0.0030827,0.00794942,0.0424612,-0.0102035,-0.00331076,0.00238392,-0.0354351,
-0.0262725,0.0124226,-0.00266006,-0.00277199,-0.00353041,-0.00275595,0.00412804,0.0327889,-0.0230637,-0.00490254,0.00214825,-0.03255,
-0.0243562,0.0105025,-0.00233107,0.00334868,-0.000307577,0.000145916,0.00449166,0.0334222,-0.0384987,-0.00681631,0.00448664,-0.0254816,
-0.0243725,0.00149958,-0.0013584,0.000132751,0.000661257,-0.000172075,-0.00351551,0.027942,-0.0503917,-0.00422296,0.0026382,-0.0184152,
-0.0153755,-9.87313e-05,-0.00231761,-0.00147377,-0.00158972,0.000153377,-0.000898989,0.0182799,-0.0481187,-0.0061369,-0.00436301,-0.0161798,
-0.0227987,0.000556429,0.000908169,0.00368015,-0.00126555,0.000800326,-0.00118042,0.0157038,-0.0336116,-0.000968234,-0.00685884,-0.00847337,
-0.0115503,-0.00876878,-0.00262711,-0.00211233,-0.00222951,-0.00209454,-0.00178436,0.00508235,-0.0223235,-0.0025605,-0.00903465,-0.00334433,
-0.00867349,-0.00779205,-0.000689691,-0.000500542,0.00195726,-0.00177044,-0.00271088,0.00444417,-0.0158644,-0.000933506,-0.00477363,0.000173177,
-0.000324664,-0.00906916,-0.00165008,0.00143275,0.00582174,-0.00402233,-0.00106258,0.0028431,-0.0126243,-0.00156028,-0.00276833,-0.00242797,
0.0012624,-0.0167854,-0.00100112,-0.00210744,-0.00254789,-0.00241138,-0.0081075,-0.00326235,-0.00809622,-0.00444084,-0.00688214,-0.0211279,
-0.00713167,-0.0135559,-0.000674475,-0.00114094,-0.00415704,0.000486871,-0.0141875,-0.00163851,-0.0122602,-0.00249247,-0.0100324,-0.0198691,
-0.00264894,-0.0180532,-0.00227989,-0.00339439,-0.000937356,-0.000156692,-0.0193026,-0.00194376,-0.0164239,0.00653841,-0.0122192,-0.0102413,
0.000223251,-0.0170779,-0.000988244,-0.00758005,0.00324788,-0.00176653,-0.0154042,-0.00289047,-0.0109289,0.000437809,-0.00796967,0.0119408,
-0.00656359,-0.0170686,0.000302959,-0.00242998,-0.000615701,-0.00176712,-0.0160141,-0.00190322,0.000361457,0.00367329,-0.0101614,0.0238194,
-0.0101317,-0.0148059,-0.00516708,-0.00243158,-0.000616219,-0.000802314,-0.016947,-0.0063868,0.00456964,0.00111359,-0.00495111,0.0224971,
0.00110881,-0.00868007,0.00191815,-0.00726294,-0.000938908,0.000483993,-0.0124079,-0.00603919,0.00491511,-0.000158612,-0.000387268,0.0182761,
0.00751963,-0.0122126,-0.00129926,0.000460809,0.00260149,-0.00273732,-0.00980149,-0.00923099,0.00429541,-0.000143312,0.00288617,0.0175954,
0.0181152,-0.00544289,-9.98733e-06,-0.00887901,-0.00287268,0.00144562,-0.00977163,-0.0140307,0.0136566,0.00212529,-0.000281917,0.00886513,
0.0106815,0.00164882,-8.99785e-06,0.000131209,0.00324288,0.000155127,-0.00298196,-0.00981419,0.0201211,0.00181806,0.00298612,0.00850426,
0.0193446,-0.00574665,-0.00612544,-0.00341496,0.00227554,-0.0037113,-0.00456372,-0.0104252,0.0269084,0.00086662,0.00271004,-0.000550088,
0.0241439,0.00102364,-8.62299e-06,0.000120951,0.00774689,-0.00403676,-0.000351413,-0.0078152,0.0262918,-0.000407106,0.00693834,-0.00155692,
0.0231479,6.77287e-05,-0.00258479,0.000114851,0.00388178,0.000144586,-0.00129102,-0.00713534,0.0379099,0.00379182,-0.00171388,-0.0202716,
0.0108836,-0.000887663,-0.00226405,-0.00214549,0.00227012,-0.00436686,0.00130995,-0.00902955,0.0347194,0.000907633,-0.00586181,-0.0267535,
0.0185794,0.00169893,-0.00194386,0.000744611,-0.000629437,-0.00211788,0.00745153,0.00195533,0.0347491,-0.00390861,-0.000998303,-0.0280853,
0.0127531,0.00589595,0.00191712,-0.00377059,0.00194388,-0.00405447,0.00457806,-0.0021897,0.0341356,0.00189879,-0.00418634,-0.029096,
0.0120774,0.0155668,-0.00355879,-0.00699865,0.00194152,0.00237912,0.00717695,-0.00118233,0.0286934,0.0035205,-0.00866517,-0.0304296,
-0.010169,0.017512,0.00094494,-0.000569063,-0.00192429,-0.00309942,0.00687775,0.000792138,0.0267929,0.00288813,-0.00703017,-0.0246812,
-0.0134215,0.014629,-0.00485405,-0.00540805,-0.00128306,0.000114217,0.00689992,-0.00173934,0.0139466,0.000645543,-0.00765187,-0.0205431,
-0.0102358,0.0172202,-0.00163923,-0.00123324,-0.000641982,0.00107403,0.00853125,0.00345699,0.00431962,0.000656015,-0.00344755,-0.0186591,
-0.0134897,0.0136955,-0.00132245,0.000365462,0.00225254,0.005575,0.00372321,0.00253757,-0.00176628,0.00034398,-0.00568522,-0.0119462,
-0.024793,0.015967,-0.00422565,-0.00189968,-0.00225776,0.00267113,0.00181213,-0.000312381,-0.0181548,-0.000934478,-0.00631633,-0.0203647,
-0.0296582,0.0156641,-4.66763e-05,0.00130768,0.00192422,0.00491817,0.00247608,0.00134592,-0.0548265,-0.00414521,-0.00212147,-0.012042,
-0.0232564,0.0102113,-0.0016632,-0.000314596,0.000633019,-0.00120543,0.00185175,0.00203942,-0.0847383,-0.00284942,-0.00404667,0.000788209,
-0.0155676,0.0118424,-0.00102666,0.00160402,0.00384885,0.00136329,0.00251469,0.000480308,-0.0779498,-0.00316401,-0.00275561,0.0274625,
-0.0246206,0.011543,-6.86847e-05,0.000302769,0.00159149,0.00264412,0.000601587,-0.000433997,-0.0457291,0.00328147,-0.0059749,0.0496305,
-0.0256258,0.010279,-0.00200869,-0.00164279,0.00223144,-0.00315787,-0.00227784,-0.00617655,-0.0312164,0.00135573,-0.00501209,0.0511952,
-0.0221245,0.014167,-8.58832e-05,0.00252813,-2.62771e-05,0.00102025,-0.0061236,-0.00226001,-0.0221779,-0.000570768,-0.000832995,0.0389176,
-0.0199115,0.00324678,-0.00331461,0.00219149,0.00383271,-0.000918598,-0.0115796,0.00294509,-0.0224768,0.00683828,-0.00277392,0.0211683,
-0.0125478,0.00778073,-0.00364632,-0.000399108,0.00350624,-0.00156974,-0.0138166,0.00396569,-0.0121526,0.00394438,-0.00664959,0.0043863,
-0.0148428,0.00297925,0.00374814,0.00344879,0.0035015,-0.00093317,-0.0131567,0.00788447,-0.00150743,0.00169354,-0.00505533,0.00241506,
-0.00715763,0.00558325,-0.00302325,-0.00203996,-0.00229845,0.00260084,-0.0150727,0.0105161,-0.000521261,-0.00570925,-0.00442994,0.00656225,
0.00181531,0.00368081,-0.000458713,-0.000446293,-0.00906448,0.00613484,-0.0115161,0.0147581,0.0046495,-0.0118252,-0.00316368,0.0168279,
0.0114323,0.00435456,0.000495742,-0.00303816,-0.00488475,0.00516164,-0.00635011,0.0128837,0.00177117,-0.00828375,-0.00608565,0.0222661,
0.000767403,0.00116558,0.00241568,-0.00337671,-0.00231503,0.00257872,0.000103342,0.00940006,0.00211186,-0.00989436,0.000325768,0.0183695,
0.00587817,0.00570367,0.000471981,-0.00307163,-0.00135532,0.00289329,0.00784436,0.0133214,0.0105008,-0.00796457,0.00287098,-0.000978531,
0.00165333,0.00219359,-0.00404755,-0.0037326,-0.00200561,-0.000655449,0.00528311,0.0127359,0.0201773,0.00104699,0.000906163,-0.0174275,
0.0112729,0.0025471,-0.00019688,-0.00310601,-0.00426592,0.00448825,0.0123801,0.00893106,0.0218053,0.0103795,-0.003637,-0.0139144,
-3.28147e-05,0.00644215,0.001078,-0.0018357,-0.00298517,-0.000670207,0.0185112,0.0138187,0.0208577,0.00747732,0.0011534,0.000224474,
0.00733532,0.00840562,-0.00312038,-0.00120941,-0.00492414,0.00254182,0.0185254,0.0048627,0.0137933,0.0019986,-0.00629272,-0.0001224,
0.0124512,0.00747157,-0.000880125,0.00134843,-0.00557564,0.00317829,0.0204714,0.000735575,0.0115581,-0.00251526,-0.00279548,-0.000467585,
0.0162807,0.00203017,0.00329159,-0.000279037,-0.0023641,0.00252697,0.0156567,-0.00403585,0.0109328,-0.00284487,-0.00638358,-0.00531825,
0.00626836,0.000773742,0.000702361,-0.00126265,-0.00108449,0.00123173,0.0143835,-0.00784201,0.0141711,-0.011546,-0.00160375,-0.00759164,
0.00205264,0.00338021,0.00422989,0.00419258,0.000516817,0.000902262,0.0127884,-0.00810751,0.0193412,-0.00994591,0.00156386,-0.00664385,
0.00202396,-0.00109659,0.0016404,0.00031153,-0.00335511,0.00121661,0.0105494,-0.00966165,0.021614,-0.00802491,0.00118766,-0.00987952,
0.00811409,0.00440614,0.00548966,0.00512299,-0.00239812,0.000565046,0.0124957,-0.009929,0.023887,-0.00739268,0.00467238,-0.00603062,
-0.0028567,-0.00490125,0.00418775,0.00220795,-0.0059485,0.00216698,0.00768111,-0.00729999,0.0290576,0.00386267,-0.000859601,-0.0079748,
-0.00448906,0.000277803,0.00127607,0.00090276,0.000803104,0.00409073,0.00222252,-0.0156182,0.030043,0.00706853,-0.00607192,-0.0108829,
0.00643651,-0.000661103,0.00383734,0.00313909,-0.000493966,0.00408268,0.000948955,-0.00816266,0.0358575,-0.00131646,-0.00484761,-0.00284291,
0.00931583,-0.00643034,-0.00165,0.00183424,-0.0030789,-0.000754653,-0.00676373,-0.00553765,0.0268626,-0.00648293,-0.00491322,0.0109941,
0.0057587,-0.00640594,0.00316476,-0.00526536,-0.0056639,0.000846657,-0.00288687,-0.00903106,0.0294572,-0.0093967,-0.00691257,0.0241893,
0.00510152,-0.00284162,0.00476004,0.00244461,0.00108738,-0.00334721,-0.00158599,-0.00479945,0.0381683,-0.0158527,-0.00150927,0.030626,
0.0083102,-0.00925908,-0.00137133,-0.0030448,0.000434006,0.000829173,-0.00640252,-0.0050767,0.0294938,-0.0174804,-0.006732,0.0164606,
0.0173165,-0.00891744,0.00151162,0.00112433,-0.00215098,-0.00143356,-0.00317107,-0.00117044,0.0143794,-0.0158894,-0.00229834,0.000365866,
0.017311,-0.0169481,0.00117509,0.00175239,-0.00216034,0.00499584,-0.0112082,-0.00145123,-0.00331162,-0.0107578,-0.00720277,-0.0125072,
0.0202058,-0.022727,0.00663347,0.00399049,0.00137178,-0.000486931,-0.00636842,-0.00720689,-0.0206823,-0.00949012,-0.00727975,-0.0163637,
0.0237473,-0.022391,0.00372129,0.00236563,7.49316e-05,0.000468781,-0.00442682,-0.00652563,-0.0335475,-0.00210609,-0.0047828,0.00103035,
0.0321207,-0.0265641,-0.0017665,0.00267279,0.000388,-0.00501473,-0.00731516,-0.00842187,-0.045127,0.00527749,-0.00518481,0.011022,
0.033736,-0.0265541,-0.00693244,0.000404788,-0.000264514,-0.000840387,-0.00376547,-0.00967623,-0.0579966,0.0155582,-0.00719793,0.0274548,
0.0266617,-0.0226829,0.00110115,0.00393214,0.00455627,-0.00503697,-0.00568967,-0.00803518,-0.057669,0.0193998,-0.00567096,0.0451776,
0.0202339,-0.0217111,-0.00470888,0.00198689,0.00422631,-0.003761,-0.00761476,-0.0134789,-0.0476858,0.0164805,0.00132787,0.050669,
0.0202475,-0.011727,0.00203671,0.00390535,-0.000932424,-0.00345132,-0.00117026,-0.00733484,-0.0315883,0.00712223,0.00124294,0.054231,
0.023161,-0.012047,-0.00184189,-0.000614594,0.00195779,-0.000888548,-0.00760437,-0.0082756,-0.0196788,0.00870992,0.00630817,0.0487806,
0.0154527,-0.00593006,-0.00217926,-0.00191469,0.0038826,-0.00315541,-0.00341533,-0.00986234,-0.024835,0.00385876,0.00493376,0.039469,
0.0122537,-0.00206851,-0.00477035,0.000970894,0.00258844,-0.00381307,-0.00470025,-0.00662205,-0.0180821,0.00737811,0.0083878,0.0285494,
0.0106664,0.00179132,-0.0109029,0.00353498,0.00548002,-0.00608096,-0.00566418,-0.00821297,-0.0177707,0.000595364,0.00926574,-0.00104131,
0.0100468,0.00210815,-0.003836,-0.000339335,0.00579656,-0.000300823,0.00174144,-0.00851817,-0.0119889,0.00186123,0.0120749,-0.0299869,
-0.00312707,0.000169831,-0.00481773,0.00480118,0.00257227,-0.00256976,-0.00179991,-0.000454909,-0.0120046,-9.22244e-05,0.0103764,-0.0415466,
-0.0101826,0.00112753,-0.0016143,-0.00164777,0.00546542,-0.00290757,0.000130828,-0.00816878,-0.0133105,-0.00558694,0.0151165,-0.0399059,
-0.00854461,0.00369356,-0.00034259,0.00317169,0.00449581,-0.00453366,0.00270452,-0.00300692,-0.0152627,0.00115228,0.0208222,-0.0279625,
-0.00561784,0.00690219,-0.00454394,-0.000378885,0.00127316,-0.00680415,0.000448154,-0.000422489,-0.0072369,0.00692582,0.0165475,-0.0266429,
-0.0146021,0.0117193,-0.00198453,-0.00264125,0.0051338,-0.00585571,0.0014103,-0.00105932,-0.00822762,0.00368516,0.0109849,-0.0333715,
-0.02262,0.0129939,-0.00457617,-7.40481e-05,0.00448781,-0.00587357,0.00172765,-0.00041017,0.000759859,0.00237633,0.0079978,-0.0291539,
-0.0213011,0.0136236,0.00088077,0.00313748,0.00738374,-0.0029944,0.0014002,-0.0119966,-0.00120054,0.000423832,0.00436666,-0.0255802,
-0.0132211,0.0123205,-0.000422993,0.00248614,0.00577302,-0.00494479,0.00493515,-0.00716557,0.000378711,-0.00249428,0.00524261,-0.0107385,
-0.0241356,0.0119823,-0.000438877,0.00441077,0.00448476,-0.00399809,0.00364006,-0.00877505,0.00163445,6.08453e-05,-0.00160814,-0.00201378,
-0.029577,0.00971147,0.00051121,-0.000746902,0.00738226,-0.00627117,0.00846096,-0.00942023,0.00288876,4.0674e-05,-0.00684929,0.00155987,
-0.0272918,0.00872745,0.00371507,0.00278828,0.00738276,-0.00371542,0.0068421,-0.00813523,0.00542955,-0.00158896,-0.0111247,0.00867482,
-0.0156703,-0.0012719,-0.000807463,-0.00172468,0.00641788,-0.00598907,0.00425647,-0.010393,0.003462,-0.000320847,-0.00992724,0.00967279,
-0.0104879,0.000961588,0.00529434,-0.000764237,0.00159009,0.000107567,0.0026357,-0.0091106,0.00310314,-0.00259382,-0.0154906,0.00551958,
-0.0111005,-0.0100055,0.00206009,-0.000769233,-0.000661795,-0.000556738,0.00133588,-0.00654163,0.00370921,-0.00422262,-0.0204102,0.00329789,
0.00116432,-0.00519839,0.00236752,0.000513914,0.00352547,-0.00444056,0.00357641,-0.00751507,0.000773164,-0.00971442,-0.024364,-0.00890418,
0.000229405,-0.00361166,0.000421679,-0.00110005,-1.36154e-05,-0.00252947,0.00774754,0.00181271,0.00330949,-0.0190692,-0.0122207,-0.00243381,
0.00798676,-0.00202587,-0.000557983,-0.00206979,0.000954701,2.5533e-05,-0.0025698,0.00309114,0.00681112,-0.0161898,-0.00909161,-0.00916332,
0.00190044,-0.00301655,-0.0041128,0.000502192,0.002889,0.00225867,0.00192106,0.00372502,0.00516127,-0.0168513,0.000476486,-0.00108376,
-0.00193246,0.00307457,0.00166909,-0.00207656,-0.000971543,-0.00226882,0.00158162,0.00564613,0.0118816,-0.00463472,0.00296214,-0.00362858,
-0.00608747,-0.000815405,-0.0041385,-0.0024014,-0.00322233,-0.000679199,-0.00230038,0.00402545,0.00508024,0.000177784,0.00802371,-0.0068176,
0.00392279,0.00463005,0.000678445,-0.000472307,-0.0038634,0.00380817,0.000255199,0.0136724,0.00536148,0.00982005,0.00922246,-0.0164458,
-0.0108567,0.000738314,0.000344798,-0.00208426,-0.00482646,0.000247337,-0.00459518,0.0139829,0.00532078,0.0204289,0.0100998,-0.0151283,
-0.00631979,0.00907952,0.00451885,-0.00466171,-0.00321409,0.00763293,-0.000432507,0.00721058,0.00334852,0.0207363,0.00453902,-0.0260449,
-0.024319,0.0135566,0.00193265,-0.00240972,-0.00932846,0.00246324,-0.00238811,0.0136379,0.00491779,0.0226544,0.00252029,-0.0234403,
-0.0098023,0.0083745,0.000634771,-0.00273293,-0.00707252,0.0082401,-0.00241346,0.00686557,0.0087409,0.0155589,-0.00722426,-0.0330697,
-0.015568,0.00769877,0.00545438,-0.000802227,-0.00932398,0.00822257,-0.00340608,0.013615,0.0157837,0.015547,0.00138274,-0.0204853,
-0.00588063,0.00219303,0.00544545,0.000484936,-0.00449294,0.00498622,-0.000858804,0.0216524,0.0157442,0.00877529,-0.00192119,0.00626446,
0.00509452,0.00151551,0.000608011,0.000162737,-0.00545711,0.00625771,-0.00217634,0.012949,0.016349,0.00425803,0.0057219,0.0236779,
0.0205769,-0.00173847,0.00542946,0.00112866,-0.0109287,0.00978347,0.00068985,0.0142261,0.0137349,-0.00122419,0.0053175,0.0301455,
0.0160989,-0.00917865,-0.00198225,-0.00144641,-0.00448874,0.00461749,-0.0112548,0.0164693,0.00339455,-0.000910628,0.00555811,0.0411204,
0.0257866,-0.00374214,0.00380631,-0.00434304,-0.00159037,0.00717883,-0.00259684,0.00519126,-0.0108086,-0.00671316,0.00547798,0.0417935,
0.0271039,-0.00764296,0.00154696,-0.00208822,-0.000945846,0.000404576,-0.00520839,0.00421559,-0.0201821,0.00165055,0.00539908,0.041501,
0.0348602,-0.00864732,-0.00360921,0.00338642,-0.000301557,0.00264543,-0.0103971,-0.00480839,-0.0253699,-0.00318462,0.00113623,0.0309067,
0.0339242,-0.0109405,0.00185936,0.00338846,-0.00609633,0.00681867,-0.0165532,-0.00868108,-0.0134942,0.00292699,0.00266968,0.0225662,
0.0255835,-0.0119469,-0.00168578,0.00467869,0.000986367,0.00423185,-0.0211012,-0.0080464,-0.00483731,0.0013127,0.00162897,0.018733,
0.0140235,-0.00554966,0.000242751,-0.00465473,0.00130809,0.0019677,-0.0211437,-0.00708958,-4.31029e-05,0.000986867,-0.00134196,0.00974875,
0.00600464,0.000846573,0.00313778,0.00500687,0.00452712,0.00324563,-0.0121732,0.000628192,0.0015324,-0.00126994,0.000195754,0.00398383,
-0.00137057,-0.0014506,-0.00137119,-0.00303789,-0.00287809,0.00355844,-0.0228428,-0.000668238,0.00568423,0.000659137,-0.00888911,-0.0236734,
-0.00295122,0.00301206,0.00313489,0.00404907,0.00195035,0.00258416,-0.0119436,0.0102693,0.00951497,1.33062e-05,-0.00573863,-0.0374874,
-0.00260076,-0.00121863,0.00184669,0.00308795,-0.00159184,0.000322791,-0.0177868,0.0154121,0.00851751,0.0025875,-0.00548404,-0.0249027,
0.00129041,0.00356416,0.00603218,0.00341505,0.00645578,0.00128149,-0.0146168,0.0121845,0.00526743,-0.00192047,-0.00490585,-0.021333,
-0.00415555,0.00094141,0.00249174,0.000523195,-0.000627986,0.000953036,-0.0133795,0.0137862,0.0074914,1.0966e-05,0.00114707,-0.0193735,
-0.0186168,-0.00618937,0.00764439,0.0037487,0.000336709,0.00191296,-0.0182601,0.0105588,5.81844e-05,1.12705e-05,-0.000524856,-0.0212781,
-0.0166601,-0.00430659,0.00410526,-0.00171778,-0.00127421,0.00222958,-0.00479079,0.00765346,-0.00544227,-0.000631808,0.00360001,-0.0177103,
-0.0150264,-0.00178072,0.00249843,0.00408417,0.00451945,-0.000350732,0.000951254,0.00989917,-0.00257109,-0.000308583,0.00386347,-0.0115676,
-0.0030919,-0.00730416,-0.00683441,-0.000737526,0.00194257,-0.00132081,0.00121981,-0.00363035,-0.00259619,0.00420034,-0.00520742,-0.0102548,
-0.00725581,-0.00477978,0.00508153,0.00442141,0.00355086,0.000285156,0.00663914,0.00408816,-0.00165423,0.000983086,0.000854974,-0.0102303,
-0.00691394,-0.0125582,-0.00103071,-0.00168719,0.00258357,-0.00680085,0.00916086,0.000860414,-0.00199876,0.00195148,0.00691945,-0.000226291,
-0.00399801,-0.00552797,0.00476945,0.000897051,0.00290399,-0.00422814,0.0181214,0.00181762,0.00216522,-0.00158695,0.00590334,-0.00213464,
-0.000439749,0.000535876,0.000589942,0.00315975,0.00225852,-0.000689181,0.0235409,0.0024525,0.00407698,-0.000295895,0.00714301,0.00464894,
-0.0107266,-0.000805465,-0.000369643,0.00220342,3.28872e-06,-4.72921e-05,0.0193023,-0.00109832,-0.00141451,0.000673529,0.00226802,0.0111101,
-0.0132885,-0.00440086,0.000280962,-0.00197196,1.57787e-06,-4.88933e-05,0.027298,-0.00143025,-0.00304122,0.00293101,0.00834135,0.0137076,
-0.0119888,0.00262744,0.00221978,0.00479905,0.00193144,-0.00133788,0.0304651,-0.000153098,-0.000803118,0.00293514,0.00282708,0.0159828,
-0.00747138,-0.00515391,-0.00324563,0.00223408,0.0028954,-0.00133874,0.0307353,-0.00950073,0.00143654,0.00293951,0.00826119,0.00441411,
-0.00971653,0.000264092,-1.822e-05,0.00321078,-0.00483317,0.00413376,0.0268208,-0.00468368,0.00721917,0.003266,0.00564914,-0.00618908,
-0.0225875,-0.00429829,0.00256568,-0.00353882,-0.00998631,0.00155805,0.0216193,-0.0053405,0.0130035,-0.000592605,0.00529308,-0.00327102,
-0.0145341,0.00208523,0.00482798,-0.00352737,-0.00258381,0.00188013,0.0228572,-0.00696405,0.0110628,-0.0083144,0.00558331,-0.00421659,
-0.0167846,-0.000223728,-0.00578708,-0.00126207,0.00127721,-0.00262661,0.0221641,0.00428911,0.013953,-0.00476815,0.00877346,0.00835911,
-0.0132418,0.00422812,-0.00288029,-0.000928198,-1.29376e-05,0.00123742,0.0153545,0.00234161,0.0142694,-0.00154381,0.00134194,0.00870073,
-0.019037,0.00642648,-0.000939071,-0.00542324,-0.000659303,-0.000371298,0.011121,0.000393022,0.0139437,0.00168055,0.00453694,0.0119395,
-0.0200048,0.00572751,0.00357792,-0.00380118,-1.79964e-05,-0.000692003,0.00463425,0.00262854,0.00557111,-0.00282171,0.000329692,0.0119586,
-0.0151791,0.00406295,-0.000919259,-0.00507642,-2.06649e-05,-0.0042319,-0.000242556,-0.00125406,-0.00119004,-0.00088518,0.006427,0.0106897,
-0.0122865,0.0110911,0.000378701,-0.00184428,0.00190823,0.00317444,-0.00511922,-0.00288433,-0.00633981,8.54586e-05,0.00222457,0.00394742,
-0.0200194,0.00459804,-0.00347425,-0.00537275,-2.6259e-05,-0.00326253,-0.0125714,-0.00419399,-0.0121318,0.00491931,-0.000365773,-0.000541607,
-0.00553946,-0.00414825,0.00136536,0.000113328,0.0028683,0.00317837,-0.0184139,-0.00260756,-0.0121272,0.00395808,0.00380704,-0.0134015,
-0.00941129,-0.0112844,-0.00763843,-0.00631227,0.00318725,-0.00808738,-0.0252224,-0.00102258,-0.00890159,0.00589419,0.00669443,-0.00855501,
0.000559459,-0.0152007,0.000420789,-0.00243553,0.000286692,-0.000358405,-0.0297776,-0.00587793,-0.00889376,0.00203516,-0.00232771,-0.014655,
-0.00653349,-0.02137,-0.00182207,-0.00435356,-0.000360348,-0.000999776,-0.028538,0.00278673,-0.00727459,-0.000214384,0.000564298,-0.00176079,
0.00472365,-0.032046,-0.00277711,-0.00401778,0.00317777,-0.00550432,-0.0369571,0.00243541,-0.00340017,0.00333077,-0.00362414,-0.000135047,
0.00921956,-0.0349947,-0.000834633,-0.00754509,0.00220862,-0.00646737,-0.0250941,-0.00306862,0.00433922,0.0043001,-0.00265926,0.00857297,
0.0130713,-0.0308598,-0.00211156,0.00244942,0.00445879,-0.00324504,-0.0177385,-0.00374522,0.0107925,0.00752267,-0.00265799,0.0230755,
0.00307938,-0.0363822,-0.00692984,-0.00172125,-0.000695811,-0.00517366,-0.0145684,-0.0160135,0.0182134,0.00398406,-0.00233256,0.0456261,
0.0117601,-0.0287039,0.00306121,0.00312276,-0.000377511,0.00159029,-0.00495959,-0.0154058,0.0211288,0.00173278,-0.00361467,0.0430647,
0.00756328,-0.0319703,-0.00240095,-0.00136923,-0.00199099,0.0022375,0.00175174,-0.020273,0.0250118,-0.00341648,-0.000387418,0.0540243,
0.0207516,-0.0210696,0.000185417,0.00283156,0.000902582,0.000309327,0.00685342,-0.0248201,0.0102238,-0.00405912,0.00284199,0.0347206,
0.00593129,-0.0140303,-0.00109153,0.00413525,-0.00296478,0.00256657,0.013565,-0.0229301,-0.000699223,-0.00116102,0.0166976,0.0385959,
0.0123596,-0.00666695,0.0014948,0.0051174,-0.000715396,0.00063874,0.0196329,-0.0226516,-0.00131849,0.00141446,0.0154241,0.0302364,
0.00913029,-0.00445216,0.000861698,-0.00162664,0.000889936,0.00096469,0.0234476,-0.0243065,-0.000970385,-0.00180574,0.0238109,0.0273485,
0.0181354,0.00195066,-9.33786e-05,0.00482936,0.00120732,-0.00192859,0.0285504,-0.0227437,0.00485222,-0.00438284,0.0177124,0.00546449,
0.00911241,0.00191776,-0.00491179,0.00162756,-0.0033046,-0.0019242,0.0275368,-0.0301967,0.00584714,-0.00728271,0.0116159,-0.0160994,
0.00974846,0.0205609,0.00250356,0.00357728,-0.00330952,0.00258758,0.030065,-0.0244516,0.000404579,-0.0108273,0.0155014,-0.0399191,
0.00845365,0.0224669,-0.000705217,0.00488359,-0.00524629,0.000982665,0.0222914,-0.0238589,-0.00793415,-0.00857794,0.0164913,-0.0595559,
0.0161741,0.0372545,0.00123704,0.00103929,0.000221403,0.000987676,0.0254643,-0.0171503,-0.0275396,-0.014378,0.00685871,-0.0811271,
7.16093e-05,0.0417444,0.00317925,0.00299043,-0.00364741,0.00260262,0.0151159,-0.0165596,-0.0162374,-0.0130964,0.00398849,-0.0682533,
-0.000254808,0.0439852,0.00158005,0.00268844,-0.00011176,0.00293001,0.0118505,-0.00824296,-0.00557797,-0.0176106,-0.00628498,-0.0566702,
-0.00476559,0.050416,0.00191246,-0.00018861,-0.00333708,0.00261374,0.00665352,0.000395126,-0.000712339,-0.010536,-0.00883056,-0.0454121,
-0.00669995,0.0571736,-0.00129656,0.00240782,-0.000123732,-0.000277843,0.0056418,0.00967685,-0.00131859,-0.010223,-0.0152383,-0.0422056,
-0.010565,0.054278,-0.000642352,-0.00239996,-0.00978824,0.00165992,-0.00116499,0.00414924,0.00741258,-0.00604768,-0.0148842,-0.0370703,
-0.0131414,0.053641,0.00387509,0.00438264,-0.00110222,0.00391984,-0.00378679,0.0205139,0.0087402,-0.0163606,-0.0132414,-0.0206699,
-0.0141072,0.0436728,0.000343886,-0.00106812,-0.00304043,-0.000258872,-0.0196086,0.0211038,0.00234229,-0.0128309,-0.00837843,-0.00620385,
-0.00927695,0.0385388,0.00292949,-0.00329902,0.000816195,-0.00282768,-0.0177241,0.0197627,-0.00856174,-0.0128432,-0.00383663,0.00278658,
-0.0131381,0.0334097,0.000685842,-5.64738e-05,-0.000478357,-0.00153298,-0.0261423,0.0200322,0.00274927,0.00259693,-0.00251358,0.0143501,
-0.00573013,0.0205587,-0.000592102,0.0031865,0.000480603,0.00169355,-0.0268346,0.0170832,0.00569081,-0.00675304,-0.00956043,0.016897,
-0.000896502,0.0147952,0.00199312,0.00288853,-0.00403351,9.11261e-05,-0.0272057,0.0192864,0.0192574,-0.00837692,-0.000187721,0.0146127,
-0.00443208,0.00839216,0.00232459,0.00452262,0.000144779,0.000742472,-0.0320848,0.0234226,0.0267081,-0.011289,-0.000794749,0.0132921,
0.00652111,0.00907614,0.000724229,-0.00317921,-0.000828017,0.00107204,-0.0289161,0.0175799,0.0351256,-0.00679669,-0.000113607,0.0196963,
-0.00473824,0.00783252,0.00878194,0.00425062,0.00206251,0.00365537,-0.0276799,0.0194652,0.0474071,-0.00133877,-0.00104183,0.0306059,
-0.00859138,-0.00242165,-0.00151126,-0.0031285,-0.00341742,-0.000200001,-0.0309516,0.016201,0.0513189,0.00315323,-0.00293559,0.0273483,
-0.00181879,0.00149324,0.00364851,0.00301429,0.00140486,0.00560303,-0.0274631,0.015514,0.0449292,0.0102208,-0.00289747,0.0215135,
0.00431164,0.000260456,-0.00406966,0.000143045,-0.00310908,0.00496735,-0.025585,0.0145066,0.0572124,0.0205079,-0.00414694,0.004731,
-0.00372154,-3.33953e-06,0.00398702,0.000813491,-0.000862111,0.00400983,-0.0295022,0.00995942,0.0511451,0.0179176,-0.00700599,-0.0130189,
0.00724178,-0.00026419,-0.00147818,0.000196477,-0.00312218,0.00176463,-0.0221516,0.0134625,0.0450777,0.0198349,-0.00052864,-0.0182147,
0.0124122,-0.00277592,-0.00147073,0.00183335,0.00298842,0.000807264,-0.0231717,0.0140697,0.0225906,0.0127381,-0.00145592,-0.0269535,
0.0217699,-0.00657291,0.00368742,-0.00457805,0.00491399,-0.00143784,-0.0116359,0.00759578,0.014912,0.0114368,0.000836216,-0.0234601,
0.0121352,-0.00135325,-0.000169232,0.00188848,0.00104484,-0.000141568,-0.00396302,0.0120695,0.0213975,0.0120676,-0.00137887,-0.0283387,
0.012483,-0.00482397,-0.00660186,-0.00420049,-0.00218015,-0.00657193,0.00532014,0.00398902,0.0204766,0.0178501,0.00187897,-0.0383698,
0.00832589,0.00168737,0.00113049,-0.00352845,0.00264371,0.001807,0.0117067,0.00814384,-0.00684577,0.0120431,-1.43793e-05,-0.0461486,
0.0151171,-0.00532121,-0.0075567,-0.00350008,0.00102905,-0.00462347,0.0171284,0.00586126,-0.032883,0.015573,0.00324319,-0.0413729,
0.00227223,-0.00041651,-0.000469256,-0.00508121,0.00134639,0.00214559,0.025127,0.00551172,-0.0489432,0.00429414,-0.00637712,-0.0308033,
-0.00252174,-0.00227137,-0.00465032,-0.00151108,0.00102021,0.00118794,0.0295857,0.00323184,-0.0453684,9.84695e-05,0.00203108,0.00423322,
-0.00151838,-0.00670073,0.000182425,0.000449537,0.00198219,-0.000735665,0.0337242,0.00513845,-0.0440512,-0.000877315,-0.00308256,0.0170551,
0.00174095,-0.00533433,-0.00399978,0.000800641,0.00326653,-0.00104971,0.0333573,0.000929322,-0.0424163,7.89903e-05,-0.00079184,0.0247257,
-0.00143616,-0.00589895,-0.00142178,0.00179582,0.00165381,0.00153356,0.0271975,-0.00166901,-0.0456151,-0.00475926,-0.0126669,0.0143675,
-0.00493281,-0.00903866,-0.00914653,-0.000750163,0.000685434,-0.00650745,0.0239372,-0.00684187,-0.080691,-0.0108849,-0.00490392,0.0120579,
-0.00327597,-0.00445152,0.0043763,0.00153317,-0.00157025,0.00444592,0.0238984,-0.00267748,-0.0996749,-0.0147566,-0.00647765,0.0129681,
-0.00580193,-0.00984451,-0.000452181,-0.000368545,-0.00189381,-0.00295163,0.0164572,-0.00366332,-0.0867916,-0.0102575,-0.000647126,0.0251469,
0.000366997,-0.00396962,0.00180146,-0.000660366,0.00132449,0.00124049,0.0199642,-0.0056142,-0.0565286,-0.00994326,-0.00608501,0.000624976,
-0.0114903,-0.00743131,0.00276671,0.00162353,-0.00189555,0.000603224,0.0212198,-0.00853019,-0.0388265,-0.00705319,0.00135434,-0.00715509,
0.00144435,-0.00477652,-0.00302943,0.00197596,0.00293349,0.00382899,0.0134632,-0.0114455,-0.0311097,-0.0112455,-0.00311862,-0.0142902,
0.00279168,-0.00566365,-0.00496289,0.000718862,-0.000285478,-2.82641e-05,0.0105379,-0.0117847,-0.0253295,-0.0115741,0.00271011,0.00078979,
0.00510742,-0.00397597,-0.00271174,0.0030033,0.000359412,0.00641631,0.00697079,-0.0124453,-0.0211638,-0.00481957,-0.0065929,-0.00634282,
-0.0147882,-0.00840604,0.000504621,-0.000829004,0.00132682,0.00288035,0.0114543,-0.0127835,-0.0170026,-0.00385955,0.00374209,-0.00445954,
-0.0143989,-0.00478855,0.00307647,0.00435323,0.00615811,0.00224151,0.00756931,-0.00475059,-0.01188,0.000320398,0.000555047,-0.000964843,
-0.0114314,-0.00406965,-0.00304475,0.000843179,-0.00381934,-0.00226103,0.00368622,-0.00508772,-0.00933698,0.00578867,0.000586954,0.00478532,
0.00312885,-0.0017423,0.000813614,0.00280628,0.00326675,0.000318728,0.0110729,-0.00413658,-0.0109831,0.0147989,-0.00195715,0.00345482,
0.00352641,-0.00585514,-0.000479718,0.00219396,-0.00155839,-0.0057944,0.00654951,0.0010003,-0.00265269,0.0138296,-0.00192619,0.0188675,
0.013907,-0.00610617,-0.0027395,0.00512311,0.000699809,-0.00289364,-0.000547811,-0.00223281,-0.00430584,0.012861,-0.00125182,0.0207611,
0.0201053,-0.0041052,-0.00210241,0.00418905,0.000705051,-0.00771999,-0.000238933,7.5957e-06,0.00208647,0.0170441,0.00264148,0.0480906,
0.0272724,-0.0117642,-0.00565119,0.00550864,0.00682783,-0.00771774,-0.00572358,0.00353629,0.00139322,0.015755,-0.0011923,0.0683401,
0.0234965,-0.00847895,-0.00340561,-0.000576401,0.00490272,-0.0125452,-0.00734361,0.00352414,0.0135751,0.012213,-0.00309491,0.0547884,
0.0235868,-0.00487366,0.0014149,0.00525042,0.00845126,-0.0102904,-0.00703075,0.00705387,0.01835,0.011891,-0.00210052,0.0376981,
0.035592,-0.0109286,-0.00696478,0.000775064,0.0023422,-0.0118995,-0.0092923,0.00317947,0.0173279,0.0096381,-0.00142855,0.0222203,
0.0469562,-0.0053957,0.00107401,0.00273848,0.00943338,-0.00385087,-0.00607979,0.00542249,0.0117967,0.00899548,-0.00236677,0.0118962,
0.0409384,-0.0120987,-0.00151183,0.00116044,0.000428095,-0.00127575,-0.0109149,-6.05979e-05,0.012059,0.0044901,-0.00588098,0.0128428,
0.0355671,-0.00882371,0.000730938,-9.58124e-05,0.00333526,-0.00288635,-0.0141393,-0.0087626,0.0107101,0.00127297,-0.00617624,0.0038116,
0.0276229,-0.00973619,-0.00217787,0.00154523,0.00237969,0.000331731,-0.0151093,-0.00941556,0.015155,-0.00226569,-0.0016428,0.00444108,
0.0238662,-0.010329,-0.000901915,0.00254216,0.00206856,-0.00224555,-0.0164005,0.00248769,0.0157356,-0.00773566,-0.00193892,-0.00619514,
0.0233312,-0.00738275,0.000373581,-0.00386585,-0.0001737,0.00161563,-0.0115739,-0.00267149,0.0176032,-0.00708845,-0.00352321,-0.00330763,
0.0202224,-0.00572661,0.0013267,0.00260351,0.00209172,3.45523e-06,-0.00803444,0.0066572,0.0210797,-0.00837267,-0.0022104,-0.00524721,
0.0229102,-0.00954583,-0.00866663,0.000702018,-0.00240319,-0.00418456,-0.00771361,-0.00590569,0.0190827,-0.00675926,0.00457507,-0.00621905,
0.0227019,-0.00242137,0.00130006,0.00362925,0.00179476,0.00289513,0.00162234,0.00406786,0.0164414,-0.00997486,0.00170196,-0.002038,
0.0263578,-0.00946473,-0.00289906,0.000439132,-0.00205544,-0.00258115,-0.00159668,0.0018081,0.0192728,-0.00417601,0.00108214,-0.00847931,
0.0174587,-0.007818,-0.000337723,0.00175571,0.00117744,-0.000331023,0.0054872,0.00469989,0.0140554,-0.00932314,-0.0037232,-0.0142751,
0.0178961,-0.00617362,0.00318914,0.00532533,-0.000418469,-0.000978526,0.00581108,0.00340692,0.0114133,-0.00803142,0.00531471,-0.00880146,
0.0125386,-0.00324379,0.00253048,0.00277745,0.00378088,-0.0013042,0.00259439,0.00501191,0.00265422,-0.010603,-0.000456947,-0.0100871,
0.0113658,0.000649563,0.000261874,0.00183862,0.000575823,0.000945576,0.00452955,0.00114435,-0.000631933,-0.000940775,0.00568305,-0.00911782,
-0.00912442,-0.00318597,0.00153442,0.00572822,0.00316596,-0.000989926,0.0058216,0.00790132,-0.010035,0.00163871,-0.00266454,-0.00685943,
-0.00965551,-0.00605792,0.00119707,0.00285625,0.00124911,-0.00517902,0.00292919,0.00081522,-0.0039849,0.00775955,-0.000710156,-0.0055656,
-0.017593,-0.00249325,-0.000106273,0.00835393,0.00287378,-0.00389505,0.00808609,0.0124022,-0.00340775,0.00905124,-0.00261923,-0.00330474,
-0.0168401,-0.00891095,-0.00301946,0.00258274,0.00192304,-0.00261099,-0.00349725,0.0107899,-0.0102352,0.00873321,0.00126652,-0.00651571,
-0.0196311,-0.00148729,0.00243774,0.00228357,0.00129431,-0.00132678,-0.00381188,0.014007,-0.00933583,-0.00285282,0.00161079,-0.00779388,
-0.0201714,0.00142709,-0.000475646,0.00294916,0.00227533,-0.0032618,-0.00380387,0.0156148,0.000578101,-0.00156122,0.00871575,0.0112114,
-0.0110566,0.00176389,0.000152271,0.00490136,0.00261246,0.000598379,-0.0118437,0.0140034,0.00534125,-0.0063866,0.0010113,0.0170182,
-0.000657533,0.00435228,0.00142404,0.00137932,-0.00187961,-0.00101415,-0.0121563,0.00885074,0.00881698,-0.00573906,0.0065064,0.0292648,
-0.00796919,-0.0040073,0.00108608,0.00365092,0.00135482,0.00188088,-0.0160095,0.0136784,0.00521041,-0.00927686,-0.00184207,0.0337858,
-0.00401705,-0.00110082,0.00364561,0.000126137,0.00265745,0.0015569,-0.0140671,0.00659413,0.00804316,-0.00412235,0.000755441,0.0334786,
-0.00425465,0.000837964,8.82785e-05,0.0046484,0.000740444,0.00702835,-0.006007,0.0053047,0.00508149,-0.00669456,0.00367484,0.0248017,
0.00838062,0.00180911,-0.00218123,-0.00338667,-0.00632789,0.003164,-0.00567279,-0.012404,0.00340817,-0.00154026,-0.00242019,0.00131616,
0.0042698,0.00245654,0.00134428,0.00145423,-0.00277245,0.00767073,0.00271077,-0.0204549,0.00431101,0.0049017,-0.00175448,-0.0247444,
-0.0159435,0.00439001,0.00165047,-0.00658434,-0.00984146,0.00445146,0.00755383,-0.0259307,0.00618034,0.00200725,-0.00688377,-0.0302004,
-0.0261824,0.00921927,-0.00158459,-0.00400072,-0.00371124,0.00734974,0.0130417,-0.0375239,0.00161153,-0.00314087,-0.00750591,-0.0369439,
-0.0274129,0.0130811,-0.0016001,-0.00785792,-0.00466419,0.00380987,0.0162769,-0.0362402,0.00251646,-0.00989877,0.000886304,-0.0272683,
-0.0280058,0.0105024,-5.75416e-06,-0.00527835,-0.00400789,0.00831925,0.0227324,-0.0404301,-0.00623612,-0.00828624,-0.000379758,-0.0307922,
-0.0250639,0.0121073,-0.00163065,-0.00720811,-0.00335209,0.00606859,0.0269354,-0.0397915,-0.0079052,-0.0105371,0.00221749,-0.0195069,
-0.031787,0.0143546,0.00060794,-0.0030232,0.00277621,0.00285285,0.033071,-0.0272416,-0.0044224,-0.00634904,0.00191728,-0.0127289,
-0.0285368,0.0059761,-0.00391403,-0.00721107,-0.00139817,-0.00261573,0.0334126,-0.0230628,-0.00448011,0.00202424,0.00032934,-0.0098142,
-0.0214305,0.0104737,0.00186638,-0.00238691,0.00344126,0.00286248,0.0318233,-0.0118017,0.00222385,0.0113634,2.92203e-05,-0.0123726,
-0.0355796,0.00692108,-0.000401503,-0.00496984,-0.00137816,-0.000672923,0.0286252,-0.011165,0.00184601,0.0120102,-0.0015586,-0.00462892,
-0.0259124,0.00401066,0.00183809,-0.00562358,-0.00136904,-0.000666189,0.0251057,-0.0108504,0.00372275,0.0100817,-0.00443411,-0.00332409,
-0.024945,0.00206433,0.000858577,-0.0075676,-0.000394733,-0.0016245,0.0264158,-0.00248724,0.0056005,0.00139246,0.00170485,0.00602931,
-0.0104636,-0.00503485,0.000201336,-0.00532893,0.000256985,0.00192515,0.0158144,-0.00281633,0.000718521,0.00493721,-0.0053557,0.0111975,
-0.022389,0.000741834,-0.000777493,-0.00792199,-0.000379735,-0.00192906,0.0135835,-0.000891508,-0.00963538,0.00172134,0.00174932,0.0353603,
-0.0259514,-0.00314162,0.00146348,-0.00729826,0.00155839,-0.00159724,0.0100648,0.00457518,-0.0170907,0.00623226,-0.00176958,0.0460017,
-0.0198632,-0.00445145,-0.00209011,-0.00860883,-0.00229916,-0.00126461,0.00364822,-0.000903488,-0.0126329,0.00688004,0.00662354,0.0498824,
-0.0121727,0.00164144,0.00337109,-0.00734653,-0.00261608,0.00711738,-0.00566646,0.0068183,-0.00398874,0.00978157,0.00278306,0.0338026,
-0.0221966,-0.0109403,0.000784191,-0.0118819,-0.00808482,0.00648581,-0.0104748,0.00520478,0.00852007,0.00849802,0.0044158,0.027381,
-0.0145211,-0.0112903,0.00302688,-0.0115908,-0.00389608,0.0045673,-0.0123868,0.00455825,0.0136256,0.00335129,-6.81265e-05,0.00614992,
-0.0161893,-0.013252,0.000762863,-0.00550735,-0.00163977,0.00136184,-0.0081832,0.0119616,0.015835,0.00303379,0.00446255,-0.00381363,
-0.00885042,-0.0181133,-0.000212891,-0.00650932,-0.00163784,0.000410786,-0.0149272,0.0203322,0.0161143,0.00464801,-0.000342844,-0.0208605,
-0.016328,-0.02684,0.0013874,-0.00880167,-0.00324641,0.00139219,-0.0194194,0.0209779,0.0160732,0.00594033,0.00257861,-0.0189134,
-0.0176957,-0.0294518,0.00363211,-0.0117405,-0.00163636,0.000764683,-0.0197283,0.0299957,0.0179652,0.0069107,-0.00287016,-0.029523,
-0.0106999,-0.0320657,0.00330182,-0.0130722,0.000616784,0.00110379,-0.0290537,0.0309669,0.0176052,0.00530548,0.00713453,-0.0410993,
-0.00821795,-0.0295304,0.000718487,-0.00474805,-0.00035029,0.000799779,-0.0284013,0.0396665,0.0143493,0.00112461,0.00619345,-0.062335,
-0.0163667,-0.0318261,0.00071125,-0.0115576,-0.00614728,0.000496532,-0.0393411,0.037422,0.0139923,0.000484951,0.00750623,-0.0510557,
-0.0145417,-0.0244653,0.00456788,-0.0119308,0.00222038,0.00276957,-0.0325768,0.0412964,0.00365665,-0.0014427,0.0120387,-0.0333387,
-0.0130449,-0.0174279,0.00295207,-0.0116623,0.00157288,-0.00300521,-0.0361172,0.0416313,0.00523423,-0.00240481,0.0159275,-0.0159448,
-0.00994444,-0.0171528,-0.00027288,-0.00592292,0.000280727,-0.00362819,-0.035475,0.0377828,-0.00864005,-0.00594278,0.00919238,-0.0123953,
-0.00813757,-0.00689859,0.00648294,-0.00340509,-0.00423162,0.00251031,-0.0296843,0.0349018,-0.0176839,-0.00787145,0.0114718,-0.0111004,
-0.0150288,-0.00630363,0.00583467,-0.00475252,0.000269634,-0.00294041,-0.0296913,0.0378173,-0.035097,-0.0165613,0.010532,-0.00819661,
-0.0122671,0.00201717,0.00615279,-0.00288239,0.00122877,-0.00259548,-0.0277692,0.0297881,-0.0505772,-0.0242859,0.0118458,0.00178923,
-0.0101544,0.0109813,0.00293009,0.00284931,0.00283103,0.0022573,-0.0261715,0.0317404,-0.0425545,-0.0246062,0.0138034,0.0104867,
-0.00869051,0.0115747,0.00131762,-0.0020447,-0.00232824,-0.00254751,-0.0323027,0.0172744,-0.0219747,-0.0165566,0.00739049,0.0111352,
-0.0110945,0.012168,0.0045348,0.000786407,0.00410166,0.00262854,-0.0274901,0.0189062,-0.00847639,-0.011405,0.00194317,0.0240172,
-0.0102835,0.0188783,0.0042111,0.00232837,-0.0026688,7.86357e-05,-0.0210698,0.0095923,0.0143597,-0.0027124,0.000358854,0.0262748,
-0.0133398,0.0188282,0.000346496,0.00322518,-0.00300116,0.0023585,-0.017227,0.000922268,0.0178808,-0.000459083,-0.00412335,0.00503049,
-0.00609778,0.0258612,0.00259921,0.00283308,-0.0052659,0.00270734,-0.0082346,0.000622415,0.0259108,0.00823272,0.000408309,-0.00494593,
-0.0181757,0.0151881,0.000667081,0.00211802,-0.00431193,0.00595427,-0.00761412,-0.00998023,0.0249281,0.0120951,-0.0092261,-0.0120249,
-0.0141597,0.0209348,2.30748e-05,-0.00181738,-0.00432451,0.00920181,0.00105378,-0.0276666,0.0233033,0.0104842,-0.00694937,-0.0104114,
-0.018195,0.0208874,0.00549629,0.00326079,-0.00240613,0.00504526,0.00328196,-0.0273254,0.023612,0.00436581,-0.0136878,-0.00622228,
-0.00838932,0.0201971,-0.00319566,-0.00164194,-0.00467366,0.00249898,0.0038998,-0.042761,0.0139422,-0.00561605,-0.010447,-0.0104035,
-0.0182242,0.0182202,0.00388781,0.00182524,-0.00468825,0.00896759,0.00805863,-0.0411355,0.000411042,0.000820949,-0.00656323,-0.00267257,
-0.0109979,0.0159224,-0.00222814,0.00207252,-0.00824483,0.00642231,0.0112515,-0.0420876,-0.00700145,0.00468224,-0.00429022,0.00216121,
-0.0108556,0.0158794,-0.0051245,0.000387779,-0.00182178,0.00323358,0.0105812,-0.0469052,-0.0124805,0.010475,-0.00523772,-0.00427253,
-9.01973e-05,0.0177692,-0.00190383,-0.00161917,-0.0031259,0.00873767,0.0131306,-0.0439986,-0.00894344,0.0162677,-0.0113375,0.000884179,
-0.00606632,0.0132213,-0.00383414,-0.000728792,-0.00764994,0.00844713,0.0066662,-0.0427042,-0.000897415,0.0198066,-0.0203359,-0.000397312,
0.00180093,0.0212304,-0.000613305,0.00112736,-0.00316006,0.00622521,0.0124364,-0.0369052,0.00393095,0.0210918,-0.0145262,0.0163507,
-0.000311737,0.0208701,-0.00350934,0.00298357,-0.00349972,0.00464737,0.014988,-0.0298209,0.00876106,0.0143283,-0.0132249,0.0234413,
0.0191464,0.0211549,-0.00318593,-0.0015989,-0.00062031,0.001138,0.0181847,-0.0307877,-0.00379193,-0.00756667,-0.000656907,0.0231281,
0.0138161,0.0172554,-0.00447226,0.000579677,-0.00321421,0.0101844,0.0149439,-0.0220987,-0.0176309,-0.0111112,-0.00225562,0.0224939,
0.00913124,0.0101375,-0.00125144,-0.00368021,-0.00613028,0.00603114,0.0136362,-0.0221045,-0.0292146,-0.0162658,-0.00128004,0.0228266,
0.0105651,0.0110691,-0.00221592,-0.00407631,0.000933675,0.00574104,0.0194128,-0.0217907,-0.0253433,-0.0104748,-0.00288121,0.0157556,
0.0103916,0.0129672,-0.00189269,0.00164507,0.00510005,-0.00163202,0.0197182,-0.0179377,-0.0176068,-0.00822545,0.003243,0.0209194,
0.0150498,0.00617348,-0.00446704,0.00350385,-0.000713807,0.00387227,0.0132646,-0.0153745,-0.00664909,-0.00468877,-0.00705302,0.0148163,
0.0232523,0.00775079,-0.000280695,0.00182207,-0.00105462,0.000361727,0.0200125,-0.0124912,-0.00212824,-0.00211834,-0.00415059,0.020304,
0.0259852,0.00288963,-0.000601645,0.00432645,-0.000429522,0.000713945,0.0203236,-0.00252692,-0.00436614,-0.00180193,-0.0105857,0.012271,
0.0358044,0.00092617,0.000687003,0.00393437,0.00277127,-0.0027978,0.0264317,0.00196289,-0.00499221,-0.00438343,-0.00124668,0.0129313,
0.0311401,-0.00232499,0.0010097,0.00322148,0.000499275,0.00238213,0.0190203,0.0122463,-0.00207468,-0.00438983,-0.00414262,0.00425606,
0.0242264,-0.0110492,0.00390782,0.00122203,0.00176892,-0.00596037,0.0161183,0.00900712,-0.00559368,-0.0047186,-0.00317631,-0.0037747,
0.0250437,-0.018164,0.00423025,0.00340914,0.00497057,-0.00367976,0.0199791,0.0138155,-0.00556888,-0.00311615,-0.00510851,-0.011483,
0.0210365,-0.0178745,0.000689239,0.00720738,0.0033435,-0.0129901,0.0174031,0.0211987,-0.00039048,-0.00666517,0.0013288,-0.0156495,
0.0260484,-0.0259559,-0.00381777,0.00649991,0.00525824,-0.00684847,0.0119316,0.0105524,-0.00293604,-0.0105365,-0.00318085,-0.0214253,
0.0226948,-0.022448,0.00390885,0.00965733,0.00298825,-0.0110102,0.0135449,0.0182564,0.00417941,-0.0111889,-0.0038281,-0.00724049,
0.0199901,-0.0292429,-0.00124242,0.00541174,0.00619184,-0.00905637,0.00550178,0.0179115,-0.00222382,-0.014739,-0.00479812,0.00565679,
0.0269489,-0.0231608,-0.000598936,0.0037434,0.00553273,-0.0109672,0.00679679,0.0124153,-0.00637048,-0.0176455,-0.00512504,0.0266028,
0.0239327,-0.0231963,-0.00188733,0.00754986,0.00487426,-0.0054749,0.00809353,0.0140017,-0.0111579,-0.0189426,0.000986144,0.0488366,
0.0173805,-0.0196913,-0.00285403,0.00395349,3.12168e-05,-0.0093204,0.00327499,0.00947107,-0.00724969,-0.0179863,-0.00545907,0.0549734,
0.0153409,-0.0190845,-0.00124544,0.0071198,0.00388131,-0.00415307,0.0071504,0.00461852,-0.00366005,-0.0109131,-0.00256857,0.044369,
0.00976527,-0.014615,-0.000924886,0.00352726,0.00225913,-0.00832365,0.00458838,0.00298544,0.00798164,-0.00899096,-0.00611745,0.0347302,
0.0122436,-0.0149753,-0.00189238,0.000902535,0.00482295,-0.00122787,0.00363737,-0.00798384,0.00513956,-0.00352731,-0.00258407,0.018652,
0.00539109,-0.00793154,0.000681215,0.00246507,0.00352424,-0.00121646,0.00365335,-0.00736305,0.00970591,0.00290245,-0.00227049,0.00836807,
0.00948997,-0.0163415,-0.00286238,0.00274189,0.000616614,-0.00410419,0.00206068,-0.0064201,0.0229686,0.0160934,0.00158413,-0.00288277,
0.0161698,-0.00897663,-0.00383074,0.00141108,0.00350476,-0.00731554,0.00465418,-0.00579881,0.0391327,0.0151194,0.00189716,-0.00383278,
0.00965529,-0.0032218,-0.00576523,0.00587735,0.0092912,-0.0098847,0.00531681,0.00126167,0.0392039,0.0221946,0.00253198,0.00165446,
0.0111947,-0.0109887,-0.0109194,0.00422886,0.00187885,-0.00762644,0.000507102,-0.00487704,0.0235041,0.0218659,-0.00101853,-0.0128206,
0.00984184,-0.00491215,-0.00480597,0.00483613,0.00348171,-0.00440404,0.00503423,-0.00200087,0.0177886,0.0263672,-0.00102768,-0.0195711,
0.0178305,-0.00817185,-0.00448773,0.00512365,0.00411958,-0.00955383,0.00183513,0.000875876,0.0130431,0.0315132,-0.00393422,-0.0288997,
0.0238926,-0.00306084,-0.000628396,0.00670114,0.00636798,-0.0121298,0.005719,0.00149969,0.0140968,0.0305432,0.00120793,-0.0350114,
0.0190138,0.00366023,0.00484041,0.00441754,0.00153448,-0.00150773,0.00799325,0.00534366,0.0170863,0.0266766,-0.00137629,-0.0350091,
0.0125301,0.00458683,-0.00321256,0.0040678,0.00539421,-0.00537471,0.0076919,0.00757875,0.0210456,0.0205573,0.00151282,-0.0330782,
0.0115242,0.0119529,0.0019339,0.0030764,0.00378172,-0.00505804,0.00771228,0.0117464,0.0198579,0.0170144,0.00472426,-0.0253555,
0.00794747,0.0115932,0.000963287,0.0101357,0.00184806,-0.00925009,0.0103078,0.0149491,0.0296202,0.0163697,0.00503869,-0.0214995,
0.0127457,0.0167073,0.00224612,0.00689515,0.00152484,-0.00797063,0.00646392,0.00495327,0.0284403,0.0099307,-0.000763237,-0.0549922,
0.00112917,0.0144178,0.00127524,0.00977364,0.00216817,-0.00250737,0.00487289,0.0123433,0.0253325,0.00284835,0.00309372,-0.079152,
0.00400419,0.0166366,-1.77003e-05,0.00879097,0.00120248,-0.00734764,0.00199316,0.0123298,0.022872,-0.00970656,0.00662941,-0.0762721,
0.00205405,0.0227199,0.00287452,0.00555683,0.00442269,-0.00478455,0.00716085,0.00909798,0.0381218,-0.0225831,0.00887809,-0.0511817,
0.0126634,0.0236534,0.0022253,0.0071539,0.00217051,0.00131865,0.00395672,0.0090867,0.0524089,-0.0193623,0.00758622,-0.0392942,
0.00556963,0.0191152,-0.00357506,0.00585553,-0.00104691,-0.00255953,-0.00440002,0.00682294,0.071206,-0.0180731,-0.00014363,-0.0290196,
0.0155422,0.0190855,0.00318028,0.00166165,-0.00040047,-0.00160967,0.000119189,0.00423836,0.0858206,-0.0113108,0.00275152,-0.00458239,
0.0100647,0.0132622,-0.00358597,0.00165494,0.00153425,-0.00420218,-0.00212433,0.00519625,0.0972179,-0.00776788,0.00435986,0.0172766,
0.0190776,0.0170985,-0.00294758,0.00293785,0.00507916,-0.00518593,-0.00791135,0.000682221,0.102822,-0.0171027,0.00146201,0.0211044,
0.0026598,0.00902417,-0.00488473,3.73009e-05,0.000254019,0.000590261,-0.0140227,0.00711529,0.116798,-0.0125941,0.00790151,0.0226764,
0.00234166,0.00835581,-0.00134884,0.00357732,-0.00231713,-0.00168287,-0.0256095,0.00517891,0.118541,-0.00132484,0.00146441,0.0203831,
9.41558e-05,0.0096203,-0.00199815,-0.00253927,0.00155091,0.00248217,-0.0307602,0.00936044,0.101932,0.00157384,-0.00143023,0.0261366,
0.00203393,0.0083104,0.00282561,0.00712089,-0.000697636,-0.00011416,-0.0352699,0.00839188,0.069226,0.000287164,-0.00142626,0.0286691,
-0.00600472,0.000562737,-0.0058721,0.00293906,-0.00358979,0.00147425,-0.0436459,0.000663474,0.0410249,0.000288138,-0.00399666,0.0170346,
-0.0053494,0.00569376,0.00571266,0.00165615,-0.00100871,0.00177449,-0.0442984,0.00452587,0.0179718,-0.00357432,-0.00109285,0.0124815,
-0.0104877,-0.00462752,-0.00105313,-0.00381064,-0.00164685,0.000142746,-0.0542903,0.00355997,-0.0321285,0.000289712,0.00535354,0.014688,
-0.000815712,0.00114914,-0.000414089,-0.00380313,0.000612635,-0.000523413,-0.055271,-0.00545371,-0.108311,-0.00196329,0.00600624,0.0117422,
-0.018186,0.00145355,0.00344457,-0.000253046,0.000618645,0.0100782,-0.0652691,-0.0031987,-0.160998,0.00801737,0.00826993,-0.0134186,
-0.0152733,-0.000816891,0.00118656,-0.00378455,-0.000984976,0.00104136,-0.0701191,-0.00190884,-0.165723,0.00769575,-0.000411085,-0.0417998,
-0.0210527,-0.00147703,0.00247015,-0.000876138,-0.00130079,0.00874546,-0.068855,-0.00126226,-0.179149,0.00962757,-0.000398339,-0.0482898,
-0.0178175,-0.00632189,0.00375401,0.000745501,-0.00773349,0.00292807,-0.0669496,0.00131653,-0.190329,0.0083398,-6.23018e-05,-0.0444785,
-0.021987,-0.00601525,0.00375039,-0.00310494,-0.000644646,0.0061252,-0.0701975,-0.00930379,-0.162241,0.00737379,-4.68407e-05,-0.0522577,
-0.0210055,-0.00538629,0.00857619,-0.000837623,-0.000960528,0.00706894,-0.0621794,0.00100258,-0.131265,0.000612596,0.00673078,-0.0317064,
-0.0222779,-0.0179567,0.00277822,-0.00661806,-0.00192038,0.00414963,-0.058026,-0.00478772,-0.104806,-0.00357332,-1.17552e-05,-0.0204915,
-0.0129267,-0.0176491,0.00792659,-0.00531502,-0.0019145,0.00573782,-0.040674,-0.00317298,-0.0876926,-0.0100131,0.0038712,0.00231337,
-0.0158097,-0.0273216,0.00438284,-0.00272355,0.000344833,0.00861414,-0.031371,-0.00509926,-0.0557791,-0.00679503,0.000672852,0.0193238,
-0.0180494,-0.02476,-0.000126431,-0.00302892,-0.00383482,0.00376423,-0.0156291,-0.00960076,-0.0435132,-0.00711865,0.002627,0.0318277,
-0.0183581,-0.0279933,0.00180344,-0.00140207,-0.00060999,0.00470972,-0.00246184,-0.00186819,-0.0254614,-0.00873043,0.00458259,0.0362842,
-0.0167358,-0.0299386,-0.00270525,0.00054725,0.000361055,0.00501177,0.00780928,0.00232327,-0.0244811,-0.0154937,0.000744655,0.0462149,
-0.00738768,-0.0238351,0.000191011,-0.00394179,4.41214e-05,0.00563624,0.0293504,-0.000889695,-0.0135289,-0.0122771,0.00173729,0.0419818,
-0.0183226,-0.019019,0.00244365,0.00058399,-0.000916928,0.00432956,0.046065,0.00684358,-0.00966742,-0.014534,0.00144359,0.0377503,
-0.0102637,-0.0171,0.000511292,-0.00165062,-0.00220017,0.00173562,0.0585977,0.00749433,-0.00806719,-0.00842075,0.000185492,0.0377059,
0.00230159,-0.00616612,0.00437413,0.00126619,-0.00155202,0.00461522,0.0711341,0.0116866,-0.0113034,-0.0103564,-0.000749233,0.0363756,
0.00842735,-0.00263619,-0.000777181,-0.00483107,0.000383612,0.00395398,0.0830309,0.00976213,-0.00617598,-0.013902,0.000249117,0.0202381,
-0.00186664,0.00443593,-0.00109915,-0.00159174,-0.000578528,0.00683463,0.08624,0.00558413,-0.00298678,-0.0206674,0.00189277,0.00989752,
0.00200412,0.0121529,-0.00496229,-0.00318131,-0.00669205,0.0103597,0.0897761,0.00752307,0.00373764,-0.00715052,0.00901085,0.0195194,
0.00651808,0.0131102,-0.000454764,-0.00573651,-0.00346957,0.0064806,0.085269,0.00366703,-0.00177751,-0.0061895,0.00679402,0.0362261,
0.0113533,0.0169662,-0.00206397,-0.00764766,-0.00217908,0.0054995,0.0830209,-0.00147687,0.003648,-0.000721299,0.00876382,0.040701,
-0.0024848,0.0198577,0.00019029,-0.000866247,-0.00346446,0.00548469,0.0714422,-0.000182094,0.00166385,0.00249341,0.00300839,0.0400268,
0.002671,0.0198532,-0.00302832,-0.00792822,-0.00571599,0.00128509,0.0634104,-0.00307279,0.00160674,0.00281083,0.00659061,0.0107016,
0.00911387,0.0272548,0.00115787,0.001107,-0.00346067,-1.66192e-05,0.0579597,0.00208476,0.00412095,0.000553004,0.00824249,-0.0205535,
-0.00215076,0.0249998,-0.00431406,-0.00466704,-0.0021715,-0.0032496,0.0460757,0.000481167,0.00437771,0.00570024,0.00828592,-0.0241199,
-0.00633339,0.0285414,0.00180404,-0.00400216,-0.00345818,-0.00229699,0.0309775,-0.00563005,0.00688461,0.010526,0.00543309,-0.0341237,
-0.0137362,0.0204947,-0.00141405,0.00116997,-0.000881861,0.00155341,0.0210355,0.00081397,0.0142175,0.0140646,0.00580084,-0.0244875,
-0.0121253,0.0143813,-0.000124837,0.000225263,-0.00474467,-0.00167864,0.00916667,-0.00497637,0.00351897,0.0176038,-0.00059108,-0.0225767,
-0.00536406,0.0085914,-0.000767162,-0.00361687,-0.0021689,-0.00104713,0.0117898,-0.00529433,0.00151046,0.0172804,0.00750542,-0.0232401,
-0.0089057,0.0024811,0.00084422,-0.000698183,0.000406616,-0.00234706,0.00186148,-0.00271549,0.00368517,0.0185675,0.00497881,-0.0409651,
-0.01277,-0.0081349,-0.00237342,-0.00164275,0.000406374,-0.00171515,-0.00516535,-0.00915178,0.00907761,0.022109,0.014365,-0.030036,
-0.00729859,-0.0036182,0.00406731,-0.000333679,-0.00538903,-0.00462444,-0.00574962,-0.00399894,0.00963959,0.0182466,0.0227861,-0.00172073,
-0.0101983,-0.0132656,-0.00236954,-0.0016001,-0.00152634,-0.00270446,-0.0124473,-0.00560772,0.00665919,0.0153508,0.0205838,0.0275618,
0.00203267,-0.000697625,0.00632498,-0.00318842,-0.00152711,0.00243505,-0.00851783,-0.00625154,0.00528782,0.0153533,0.00775812,0.0368853,
-0.012458,-0.00551326,-0.00107749,5.24386e-05,-0.001528,-0.000795843,-0.0103804,-0.00754016,0.0093891,0.0140687,0.00942027,0.0446006,
-0.0092424,-0.00356686,-0.00204104,-0.00250161,0.00233432,-0.00273889,-0.00934281,-0.00979554,0.0134903,0.00409238,0.00142449,0.0307473,
-0.00763685,-9.52719e-06,-0.00171674,-0.000870349,0.00104552,-0.000174694,-0.00894675,-0.011408,0.0185576,0.00248715,0.00662852,0.0297731,
0.00330472,0.000973457,0.00182706,0.00108292,0.00522971,-0.000829882,-0.0101583,-0.0162408,0.0213719,-0.000727261,-0.00619617,0.0156008,
-0.00442657,-0.00351541,0.000541803,0.00078266,0.00361893,-0.000841167,-0.00750456,-0.0210746,0.023865,-0.00490703,-0.00936272,0.0104441,
0.00812435,0.00197706,0.000222437,0.0037019,-0.00088929,0.00172309,-0.00227363,-0.0149633,0.027325,-0.0110181,-0.0138173,0.00271305,
0.010695,-0.00250956,0.000225075,-0.00335897,-0.00378775,-0.0027954,-0.0105628,-0.014004,0.0275669,-0.00714859,-0.0179504,-0.000509675,
0.0287189,0.00266316,0.00087165,-0.00269314,0.00586959,-0.00345061,-0.00275362,-0.00821635,0.0303858,-0.00553244,-0.016611,-0.011458,
0.0139048,0.00268587,0.00216216,0.000870263,0.00329323,-0.00346198,-0.00170416,0.000467948,0.0441524,-0.00198444,-0.0117308,-0.019508,
0.0184074,0.00721679,-0.00395196,-0.00136118,0.00715583,-0.00701477,-0.00322938,-0.000506738,0.045687,-0.0077726,-0.00395401,-0.0336742,
0.0148616,0.00691959,-0.00491498,0.000270788,0.00168223,-0.00348489,-0.000246751,0.003669,0.0491551,-0.00615599,0.00832917,-0.024016,
0.02194,0.00436975,0.00217059,-0.00035071,0.00586704,-0.00478421,-0.00338056,0.0100978,0.0436109,-0.00486124,0.0074118,-0.015001,
0.0132434,0.00729385,-0.00265568,-0.00386955,0.000393728,-0.00189834,-0.00104109,0.00815551,0.0322737,-0.00421034,0.0138981,0.00238505,
0.00261534,0.0156918,-7.72613e-05,0.00387972,0.00296912,2.16423e-05,0.00129845,0.0091103,0.00451935,-0.00838856,0.0133005,0.0194497,
0.00389922,0.0118568,-0.00393766,-0.00350213,-0.00250389,-0.000633955,-0.00473261,0.0103866,-0.0158284,-0.00129881,0.0094823,0.024603,
0.00936841,0.0141395,-7.14289e-05,0.00231581,0.000715692,-0.000323766,-0.0017496,0.015204,-0.0265161,-0.00129182,0.00534079,0.0200986,
0.00228188,0.0122375,-0.00232207,0.000407317,-0.00218147,-0.00258914,-0.00488398,0.0148699,-0.0243242,0.00257844,-0.00685075,0.00432656,
0.00324386,0.011302,-0.00296298,0.000430667,0.00103841,-0.002279,-0.0070532,0.0109942,-0.0301792,-0.00256573,-0.00745399,-0.00339655,
0.00323992,0.0106889,-0.00231608,-0.00469686,-0.00121456,0.000928617,-0.00503804,0.0129131,-0.0228328,-0.00159307,-0.00612733,0.000470508,
0.00452359,0.00363722,-0.00166914,0.000156036,0.00103981,-0.00745367,-0.0117163,0.0100026,-0.0270745,-0.00609351,-0.0105975,-0.00371081,
0.00451929,0.00302464,-0.00134408,-0.00722465,-0.00282255,0.00122699,-0.0122789,0.00355044,-0.016505,0.000673932,-0.0179671,-0.00821398,
-0.00417774,0.000480496,-5.31398e-05,0.000526189,0.00265156,-0.00168222,-0.00930152,0.00385869,-0.00368002,-0.00221698,-0.0195439,-0.00981966,
0.00193421,-0.00721477,-0.00520096,-0.00138098,0.00233089,-0.00169389,-0.0101889,0.00255684,0.00592753,0.0010089,-0.0169375,-0.0156106,
0.00707992,-0.00010088,0.00156318,0.00250709,0.00555174,-0.0049249,-0.00657074,0.00511788,0.00877639,0.000693312,-0.0178748,0.00467554,
0.0109374,-0.00554304,-0.00261861,-0.0010092,-0.00217326,-0.00171695,-0.0122907,0.000273793,0.00969577,0.00971393,-0.0226777,0.0198105,
0.00867733,-0.00486874,0.00124829,0.00126979,0.00233569,-0.000762468,-0.0115736,0.00347776,0.00804186,0.0016715,-0.010742,0.0320477,
0.0112458,-0.00998996,0.00189592,0.00226135,-0.000559866,0.00308966,-0.0111805,-0.00104543,0.0118633,-0.00347358,-0.00782298,0.0378458,
0.0147793,-0.0157557,0.00479731,0.00486298,0.00105192,-0.00142852,-0.0156186,0.00183545,0.00924827,-0.00443356,-0.0110232,0.0204636,
0.0183119,-0.0208784,0.00319169,0.00327974,-0.000555564,0.00371179,-0.0116883,-0.00558645,0.0191914,0.00716204,-0.00585535,0.00372473,
0.00639037,-0.0211728,0.00223015,0.00749185,0.00105651,-0.000805915,-0.0090481,-0.00657019,0.0226982,0.00652367,-0.00680671,-0.00915153,
-0.00327872,-0.0311264,-0.000984774,0.00558746,0.00138096,0.00143744,-0.0115612,-0.0117399,0.0323244,0.00169987,-0.00937011,-0.0236384,
-0.00135916,-0.0298131,0.00352712,0.00947843,0.000739702,0.000139724,-0.00924761,-0.0140129,0.0361581,-0.00891909,-0.00807251,-0.0262144,
0.000880941,-0.0333299,-0.00677009,0.00628707,0.00138634,0.000452046,-0.014663,-0.025945,0.0309799,-0.00988002,-0.00581135,-0.0349084,
-0.0091143,-0.0252578,0.00289333,0.00631552,0.00171114,0.00334025,-0.0104225,-0.0314389,0.0254822,-0.0179239,-0.0103132,-0.0394185,
-0.0187893,-0.0294204,0.000645127,0.0053785,-0.000861429,0.00333135,-0.00618442,-0.0337143,0.00614326,-0.0201731,0.000314075,-0.0606708,
-0.0184859,-0.0229599,0.00226048,0.00508572,0.00171716,-0.00150629,-0.00388045,-0.0398537,-0.00868628,-0.0259639,-6.81059e-06,-0.111543,
-0.014643,-0.0158563,-0.000953051,0.00286159,0.00333,0.00202698,-0.0028667,-0.0344038,-0.0116019,-0.014048,0.00610909,-0.112194,
-0.0252896,-0.0148703,0.00227252,0.00192551,0.000113782,-0.000878172,-0.00765033,-0.0337835,-0.0167691,-0.00663949,-0.00194247,-0.0713152,
-0.026602,-0.00873378,-0.00222825,-0.00319558,0.00172674,0.000724313,-0.000524547,-0.0360612,-0.0203248,0.00141285,0.00416948,-0.00307237,
-0.0221215,0.00190948,0.00196368,0.00262956,0.00237391,0.00200532,0.00305746,-0.027393,-0.0248445,0.00753352,0.00641622,0.0432777,
-0.01378,-0.00354465,-0.00285849,0.000728262,0.00205526,-0.00122038,-0.00269925,-0.0206564,-0.0245334,0.0175176,0.00125646,0.0458433,
-0.0131672,0.0032349,4.62317e-05,0.000758739,0.000448842,0.00199325,0.00280962,-0.0100563,-0.0329131,0.00850719,-0.00422705,0.0377848,
-0.0196394,0.00357563,-0.00219983,0.00143319,0.00334959,-0.00187533,0.00219922,-0.00235317,-0.0509494,0.00142865,0.00316538,0.0351994,
-0.0103386,0.00681401,-0.00251395,0.000497967,-0.00308604,0.000695452,-0.000667136,0.00277523,-0.0528869,-0.00275217,-0.00135577,0.0248877,
-0.00522523,0.00940884,-0.00250582,-0.00108113,-0.00147318,4.73584e-05,-0.000316429,0.0233579,-0.0329307,0.00691079,0.00410163,0.0145765,
-0.00301142,0.00331169,0.00168788,0.000881093,-0.00565538,0.000365647,-0.0086605,0.0284887,-0.0120068,0.00884747,-0.00621775,0.00104659,
-0.00305327,0.0133123,-0.00184471,-0.00295172,0.00014251,-0.000925203,-0.00284144,0.0400599,0.00215826,-0.00370288,0.00503141,0.00715586,
-0.0121115,0.0258891,0.00138383,0.00222972,0.000789194,0.000360071,7.78224e-05,0.0471257,0.00698911,-0.0114237,0.00951826,0.0106905,
-0.0060404,0.0223696,-0.00182611,-0.00289114,-0.00113981,-0.000607646,-0.00601958,0.050974,0.0201927,-0.00980778,0.0069209,0.00392393,
-0.00641002,0.0262558,0.00365675,-0.000607546,-0.000493441,0.00743963,-0.00535846,0.0535367,0.0382278,0.000501048,-0.00211677,-0.00123181,
-0.0122545,0.0162994,0.00366698,-0.00315332,-0.00177891,0.00164403,-0.00180211,0.0548138,0.0617384,0.00662516,-0.00568284,-0.000269467,
-0.00361323,0.0172901,0.00850673,0.00202723,0.000798733,0.0051854,-0.00082349,0.0419277,0.0549891,-0.00270338,-0.00506507,0.000372226,
-0.0133243,0.0169941,0.00497639,-0.00599215,-0.00789181,0.00422022,0.00498208,0.0415996,0.0459888,-0.00655827,-0.00380477,0.0145369,
-0.00726181,0.0118701,0.00852918,-0.0033878,-0.00789013,0.00389958,-0.00177022,0.0296837,0.0386008,0.000533537,-0.00962851,0.0171131,
-0.0150442,0.00900078,0.00660934,-0.0020716,-0.00177179,0.00357958,0.00531888,0.0206673,0.0376542,0.0127771,-0.00418557,0.0290272,
-0.0154233,0.0122494,0.0062996,0.0024636,0.000161079,-0.000603074,0.0085426,0.0203454,0.0341344,0.0189046,-0.00292909,0.0412648,
-0.0138718,0.00970409,-0.000126681,0.00345701,-0.00273541,0.00326346,0.00307183,0.0135864,0.0219246,0.0195599,0.00379922,0.0383729,
0.000556234,0.0142425,0.00600311,0.00541577,0.00177254,0.0055209,0.00790118,0.0113362,0.0232384,0.0192502,0.00408758,0.0296876,
-0.0149572,0.00429452,0.00311884,-0.000674512,0.000163381,0.00391566,0.00274831,0.00200478,0.01393,0.0144342,-0.00431755,0.0303403,
0.00590814,0.00529344,0.0037762,0.00160516,0.00370507,0.00102324,0.00403228,0.00523035,-0.0224198,0.00575568,0.000475934,0.0184387,
0.00488085,0.00307377,0.00250216,-0.000944876,0.000163829,0.00328248,0.00628008,-0.00120125,-0.0555487,-0.000668425,0.00365876,0.0107239,
0.0164089,0.00214263,0.00122831,0.00133361,0.00177344,-0.00218435,0.000477327,-0.00731004,-0.0510091,0.00063486,-0.000885925,-0.00246254,
0.00604471,0.0050755,0.000920462,-0.00250545,-0.000158515,0.00168568,-0.0043616,-0.0111645,-0.0287616,0.00902162,0.00293904,-0.0179014,
0.00566063,0.00478955,0.00286632,-0.000550231,-0.00112486,0.00298068,-0.00566116,-0.012443,-0.00844467,0.0119361,-0.00579252,-0.0413876,
0.00656438,0.00289443,0.000627016,-0.00342487,-0.00370113,0.00105674,-0.010826,-0.0246672,0.000605167,0.0125976,-0.0035788,-0.0545708,
0.0142291,0.00840443,0.00225104,-0.00018336,-0.00370209,0.00299655,-0.00569076,-0.0195063,-0.00257796,0.00617701,0.00249754,-0.0551972,
0.00933843,-0.00443591,0.000655635,-0.0066009,-0.00338131,0.00558068,-0.0182643,-0.027867,0.00711737,0.00362028,0.000202766,-0.0545348,
0.00798956,0.000752776,0.00388929,-0.003361,-0.000485197,0.00333606,-0.0179621,-0.0262476,0.0061893,-0.00312122,0.00177072,-0.0432475,
-0.00108536,-0.00146303,0.00164982,-0.00495107,-0.00499395,-0.00116179,-0.0192715,-0.0310672,0.021037,0.00237148,0.00398204,-0.0213349,
0.00754718,-0.0033568,-0.00413118,-0.00364453,0.0011212,-0.00437155,-0.013822,-0.0336335,0.0249392,-0.00275957,-0.00443118,-0.0013528,
0.00684414,-0.0046067,-0.00411745,-0.00459246,-0.000490436,0.00239916,-0.0193203,-0.0429609,0.0288418,0.00659703,-0.00962539,0.0202404,
-0.00416019,-0.0100419,-0.000562623,-0.00360964,-0.00145834,-0.00081008,-0.0145181,-0.0384451,0.0114965,0.00178837,-0.0116005,0.0257379,
-0.00840281,-0.00936044,-0.0076322,-0.0103543,-0.000816681,-0.00273135,-0.012937,-0.0451976,-0.000375594,0.00438447,-0.00456159,0.0106329,
-0.00202033,-0.00835725,-0.0044,-0.00100284,0.00497593,-0.00465245,-0.00588435,-0.0345654,-0.0215841,-0.00171183,0.000545491,0.0138803,
0.00243163,-0.0118616,-0.0072851,-0.0058177,-0.0024312,-0.00206622,-0.0110668,-0.0342355,-0.0286272,0.00539144,-0.000142518,0.0287194,
0.00269955,-0.010859,-0.00630733,-0.00548238,0.00400508,-0.000445712,-0.00208502,-0.020062,-0.0479046,-0.00456837,0.000457184,0.0367997,
-0.00186035,-0.0133983,-0.00629586,-0.00836738,-0.00211447,-0.0039762,0.000456877,-0.0113612,-0.0401392,-0.00197266,-0.000874741,0.0387652,
0.00549301,-0.0120747,-0.00789458,-0.00288276,0.00206806,-0.00396526,0.00138816,-0.00459174,-0.0281891,-0.00517222,4.70304e-05,0.0246355,
0.0105943,-0.00560049,-0.0033769,-0.00770113,-0.00276385,0.0021626,-0.00186654,0.00411004,-0.0152737,-0.000323619,0.00129093,0.0159809,
0.000887806,-0.0110386,-0.00143526,-0.00350594,0.00141856,0.00152969,-0.00834126,0.0121688,-0.0133049,-0.00545569,0.00156926,0.00797217,
0.0034168,-0.00553117,-0.00850852,-0.00671621,-0.000194021,0.000896771,-0.00805564,0.017975,-0.00586358,0.000357721,0.00667706,0.00865782,
0.00272813,-0.000346151,0.000836748,0.000374914,0.000446966,0.000585758,-0.00905807,0.0292554,-0.00647138,-0.000590267,0.00019537,0.0144964,
0.0097679,-0.00160043,-0.00688142,-0.00412458,-0.00470702,-0.000691137,-0.0139239,0.031201,-0.0064358,0.0110168,-0.0014567,0.013898,
0.00296606,0.00197397,-0.00043465,0.00360906,-0.000524684,0.00382684,-0.00880947,0.0347579,0.0026137,0.00781376,-0.00182045,0.0133013,
0.00196114,-0.00411033,-0.00525635,0.00361548,-0.00149341,-0.00195743,0.00113435,0.0334874,0.00779945,-0.00182896,-0.00669075,0.00240417,
0.00482155,0.00203875,0.00247721,0.00168968,0.000435373,0.00256032,0.00431784,0.030287,0.0136287,-0.0114726,-0.00576538,-0.0194375,
0.00768405,0.00722159,-0.0036332,0.00362666,-0.00439658,0.000639066,0.00943364,0.029342,0.00625796,-0.0121029,0.00159961,-0.033873,
-0.0039387,0.00532132,0.00120195,0.00685091,-0.000214086,0.000971223,0.00489202,0.0251796,-0.000469242,-0.0098368,-0.00841939,-0.0354296,
-0.00235963,0.00503037,-0.00394353,-0.00119327,-0.0021484,0.0038787,0.0167705,0.0197312,-0.0020457,-0.012079,0.00345462,-0.013483,
-0.00657328,0.010534,0.00217854,0.00718118,0.000424574,0.00324458,0.0247868,0.0200797,0.000884709,-0.0214052,0.00792502,0.012972,
0.00273693,0.00863255,-0.00650912,-0.00150769,0.00170992,0.00035658,0.0292632,0.014957,-0.00037043,-0.0271913,0.0123965,0.0436134,
0.000781531,0.0138134,0.00122188,0.00332463,-0.00215565,0.00422905,0.0231169,0.0143433,0.00738851,-0.0217106,0.013006,0.0600907,
0.00043825,0.00354068,-0.000383789,-0.00246747,-0.00215774,0.00327205,0.0308158,0.00954602,0.0196544,-0.0149435,0.0136167,0.0669108,
0.00235103,0.00614515,-5.81422e-05,0.00204225,0.00234757,0.00617796,0.0330434,0.00700393,0.0277347,-0.00688978,0.012619,0.06182,
0.00104691,0.00681748,-0.00166446,0.00333225,-0.00151739,0.00135682,0.0368825,0.0080047,0.039678,0.00180658,0.0164519,0.0647787,
0.00489645,0.00330402,-0.000695515,-0.00246074,-0.00441627,0.00233016,0.0288114,-0.00290498,0.0448602,0.0198381,0.00934015,0.0497091,
0.00198782,0.00107774,0.00381453,-0.000527387,0.0023434,-0.000882278,0.0268591,0.00131789,0.0413496,0.0220933,0.0183269,0.044298,
0.0023013,0.00142635,0.00252938,0.00269351,-0.000232949,-0.00699278,0.0194355,0.00103474,0.0349409,0.0175867,0.016691,0.0189265,
0.000685842,0.00177427,-0.000365686,-0.00116854,0.00105435,-0.00827479,0.0136232,-0.00504231,0.0323948,0.00889367,0.0176321,-0.00226033,
0.00808753,0.00373114,0.00285596,0.000442244,-0.0015213,-0.00279671,0.0084565,-0.00146015,0.028882,0.0169405,0.00923826,-0.0215164,
-0.00446838,-0.00686854,0.00317995,-0.00245433,-0.00152101,-0.00665566,0.000715731,0.000835078,0.0198951,0.00695754,0.00277741,-0.0333691,
-0.000924345,0.000237728,0.00382573,-0.000843876,0.0039527,-0.0047204,0.00199075,0.0021652,0.0102628,-0.00624604,0.00114699,-0.0555257,
-0.00832345,0.000904225,-0.00325523,0.00205422,0.00170026,-0.00922478,-0.00252789,0.00896895,0.00127286,-0.0197728,0.0101419,-0.0664163,
0.00295301,0.000281971,-0.00132194,0.000445028,0.00395548,-0.0040717,-0.00897697,0.00386134,-0.00256798,-0.0226767,0.00207506,-0.0837482,
-0.00637185,-0.00259492,0.00157706,0.00302099,-0.00119347,-0.00503634,-0.0080203,0.00487101,-0.0366736,-0.0184991,0.00302371,-0.0672788,
-0.00281601,-0.00482901,-0.000675104,0.00141165,9.69362e-05,-0.00246045,-0.0125356,0.00105181,-0.0768986,-0.0114252,-0.00632873,-0.0524218,
-0.00215457,-0.0073862,-0.00292735,0.000446146,0.00428536,-0.00729007,-0.0144745,-0.00630862,-0.102317,-0.00757209,-0.00473417,-0.0359581,
0.015251,-0.0031838,0.00286889,0.00720722,0.00139163,-0.00246227,-0.0128712,-0.00658632,-0.0884613,-0.0011446,-0.0108653,-0.0259362,
0.00368492,-0.00992867,-0.00195901,0.000446714,0.000108182,-0.00761552,-0.0206034,-0.0120152,-0.0565798,0.00206231,-0.0157078,-0.0136636,
0.0114386,-0.00283131,-0.000348106,-0.000196897,0.00204475,0.000430022,-0.0138475,-0.0151908,-0.0411203,-0.00696572,-0.0218373,-0.00944258,
0.00567398,-0.00796905,0.00158472,0.00109115,0.00269416,-0.0079443,-0.0135297,-0.016113,-0.0292051,-0.0156729,-0.011547,0.00443377,
0.0179414,-0.00473763,-0.00131158,-0.000840211,0.00431002,-0.00311981,-0.0119235,-0.0257282,-0.0272729,-0.0276005,-0.00447534,0.00864894,
0.0115395,-0.00376116,0.00255291,0.000447872,0.00109738,0.00138195,-0.00774108,-0.0211784,-0.0240556,-0.029227,0.00517258,0.0147929,
0.0109358,-0.00632742,0.00223218,-0.00212732,0.00303646,8.79868e-05,-0.0122504,-0.0182388,-0.0230943,-0.0289227,0.00258745,0.00998787,
0.00743798,-0.00631951,0.00416509,-0.00438053,0.00272259,-0.00185061,-0.00903235,-0.0191632,-0.0115114,-0.0170292,0.00225664,0.0035703,
0.00941644,-0.00212775,-0.000340781,0.00366846,0.00466297,0.00200504,-0.00710136,-0.0110737,-0.00411573,-0.0225213,0.00257045,-0.000596549,
-0.00115757,-0.00662979,0.000626421,-0.002126,-0.00369815,-0.000578858,-0.0151498,-0.0107115,-0.00251696,-0.0189995,0.000631372,-0.0108832,
-0.000460389,-0.00469437,0.00159369,0.00366953,-0.000468703,0.00456318,-0.00774419,-0.0080962,0.00197761,-0.00614158,0.00223436,0.00104132,
-0.00394525,-0.00469198,-0.000658375,-0.00212477,-0.00206774,0.000690181,0.000628129,-0.00515953,0.0138754,0.0105795,-0.00099108,0.0245528,
0.00158742,-0.00791035,-0.000334821,0.000129586,0.00245076,0.000357911,0.0044942,-0.00801832,0.0161137,0.0157108,0.000935226,0.0268133,
0.00197216,-0.00469121,-0.00194283,-0.00212314,-0.00140058,0.00421027,0.00449797,-0.00540457,0.0215704,0.0301787,0.00157443,0.0271392,
-0.00311302,-0.0143511,0.000312569,0.00238503,0.00150952,0.00162318,0.0028931,-0.000215698,0.0209093,0.0365985,-0.00647815,0.0123308,
0.00339479,-0.00791506,0.00289002,-0.00405269,0.00184472,0.0035427,0.00933792,0.000787562,0.0196037,0.037224,-0.00261824,0.00653384,
0.00668622,-0.00502166,0.00192622,0.00238742,0.00379028,0.00256415,0.0103109,0.00372216,0.00799548,0.0365624,0.000598416,-0.006349,
0.0212486,-0.00502691,-0.00257882,0.000457192,-0.00327789,0.00222892,0.00677791,0.00343708,0.00121601,0.0359017,-0.00713034,-0.0372638,
0.0203608,0.00204945,0.00386229,0.00239044,0.00382003,0.00124925,0.0135483,0.00798092,-0.00652953,0.0374954,-0.00230274,-0.0417826,
0.0194758,0.000754259,-0.000964436,-0.000505257,-0.000671331,-0.00327235,0.0103398,0.00672964,-0.0200701,0.0310414,0.000915753,-0.0421195,
0.0176279,0.0120138,0.00225752,0.000462544,0.00417426,-0.00715062,0.0148593,0.00869766,-0.0162258,0.0191153,0.00316903,-0.035055,
0.0190021,0.0161897,-0.000637277,-0.00243275,-0.00321333,-0.00652226,0.0142289,0.00873393,-0.00433281,0.0129849,0.00767652,-0.027028,
0.00717924,0.0129601,9.4242e-06,0.00400848,0.00227738,-0.00267501,0.00651717,0.0119895,0.00369726,0.00106032,0.00156053,-0.0199701,
0.00855851,0.0135928,0.00258792,-0.00242773,-0.00124568,-0.00430129,0.0123283,0.0133135,0.00367929,0.00137013,-0.00455487,-0.0151689,
-0.000362025,0.0126151,-0.000628398,0.00143843,0.00295846,-0.00721584,0.0120237,0.016247,0.0075253,-0.00508029,-0.00648443,-0.0184193,
5.59483e-05,0.00970483,-0.00835176,0.000153766,0.00329989,-0.00401397,0.0117203,0.0149953,0.0142696,-0.00444753,-0.00229651,-0.0236043,
-0.011114,0.010979,0.0051732,0.00595208,0.00203218,-0.00242224,0.0136718,0.0205043,0.0194052,-0.00703381,-0.000683548,-0.0197776,
-0.0184186,0.00323795,-0.00222793,0.00241435,-0.00116661,-0.00211869,0.011439,0.0182865,0.0168154,-0.00929786,-0.00164554,-0.0124122,
-0.0247558,0.00322264,0.00389267,0.00306212,0.00271787,0.000438091,0.0124267,0.0199318,0.0151926,-0.0160689,-0.00260694,-0.00923443,
-0.0191794,0.00417226,-0.000932604,0.0024224,0.00273957,-0.00086876,0.0176006,0.0112748,0.0126053,-0.02123,-0.000670281,-0.0141074,
-0.0177867,0.00254541,-0.00125053,0.00178294,0.000186254,-0.00121007,0.0115073,0.00680258,0.00486848,-0.0247814,-0.00130856,-0.026709,
-0.0112415,0.00445895,-0.00349994,-0.000144016,0.00149674,-0.00187357,0.00959995,7.6347e-05,-0.00286683,-0.0132014,0.00159512,-0.0302981,
0.00174401,0.0063715,-0.000598108,0.000504818,0.000232157,0.00229186,0.00737126,-0.00117745,-0.0163955,-0.00838207,-0.0032272,-0.0264839,
0.0205258,-0.000409442,-0.00220329,-0.00625076,-0.00103197,-0.00191336,0.0019236,-0.018851,-0.0160789,-0.00291882,-0.00225394,-0.0168761,
0.0212801,-0.00300623,0.00198667,0.000837415,-0.00197372,0.00514927,-0.00642123,-0.0172088,-0.0102875,0.00351034,-0.00192395,-0.0120984,
0.0284745,-0.012043,-0.000905908,-0.00559573,-0.00420283,-0.00034391,-0.0109026,-0.0200746,-0.00159672,0.0128371,1.63963e-05,-0.00184823,
0.0382455,-0.00981297,0.000708906,-0.00301425,0.00226088,0.00414308,-0.009589,-0.025517,0.00387667,0.00735461,0.000347681,-0.00576387,
0.0402909,-0.0101597,-0.000251609,-0.000110572,0.00228613,-0.00424761,-0.00763163,-0.0280629,0.0164349,0.00734526,0.00067963,-0.0045284,
0.037508,-0.0114735,-0.00153385,0.000539765,0.00102397,0.000883303,-0.0150108,-0.0277124,0.0331807,0.00379466,-0.00735823,-0.00747782,
0.027643,-0.0134324,0.000725502,0.000224541,-0.00410116,-0.000424542,-0.0108004,-0.0141634,0.0389828,0.00346358,0.00263335,-0.00269992,
0.0242173,-0.0195778,0.000731492,0.00248512,0.00107618,-0.000444501,-0.014639,-0.00930778,0.0418898,0.000878999,6.99008e-05,-0.0107986,
0.0214356,-0.0199295,0.000737726,-0.00137092,-0.00115085,-0.00303984,-0.0110735,-0.00928233,0.0354629,-0.00814436,0.00748738,0.00492775,
0.0102833,-0.0222141,-0.00150938,0.00346576,0.00467096,0.00273551,-0.0110499,-0.00539455,0.0296824,-0.0149141,0.007179,0.0402944,
-0.00569854,-0.0254657,-0.0027904,0.000576118,0.000512823,-0.00307881,-0.0116709,-0.00826847,0.0248701,-0.0133132,0.0078372,0.0569905,
-0.00880344,-0.0238892,0.00301157,0.00348172,0.00633514,0.00173123,-0.00907317,-0.00567024,0.0242454,-0.00430771,0.00527673,0.0643527,
-0.014163,-0.0284306,-0.000200552,0.000592658,-0.000720002,-0.00279473,-0.0103395,-0.00114115,0.0255546,-0.00206291,0.00175119,0.0594838,
-0.00439258,-0.0210611,0.000772862,0.00221107,0.000917487,0.00426958,-0.0109628,-0.0082027,0.0268659,-0.00239356,-0.00338332,0.042062,
-0.0171597,-0.0223847,0.00174657,0.00189812,-0.00291787,-0.000255609,-0.0106211,0.000832201,0.0259255,-0.00208023,0.00403865,0.0449256,
-0.0183389,-0.023065,-0.000820767,0.00287322,-0.000636183,-0.00284871,-0.00931433,0.00213992,0.0159726,0.00209653,0.0027689,0.0320172,
-0.0124375,-0.0137655,0.000475509,0.00191695,0.000679794,-0.00189996,-0.00350125,0.00795433,0.0192209,0.00176624,0.00987036,0.0381066,
-0.0110457,-0.00704163,-0.000803428,0.00257065,0.00199586,-0.000950683,-0.00412783,0.0115147,0.00540768,0.00272389,0.00248512,0.0322874,
-0.0138418,-0.00707854,-0.000472327,0.0016149,-0.00473655,-8.37037e-07,-0.006043,0.0186161,-0.0306184,0.00239396,0.00572464,0.0203545,
-0.00440701,0.00318698,0.00887349,0.00194716,0.00108682,0.00738846,-0.00473955,0.0228198,-0.0730823,0.0078592,0.00381374,0.0171172,
-0.00559938,0.00315087,-0.00174076,0.0019577,-0.00113835,-0.000674793,-0.00858794,0.027989,-0.085283,0.0130027,-0.00678899,0.0219315,
0.00286322,0.0166371,0.000844956,3.68078e-05,0.00178755,0.00253062,-0.0063202,0.0218899,-0.0627133,0.0126735,-0.00998647,0.0199882,
