Pectoralis,AntDelt,PostDelt,TeresMaj,TriLong,TriShort,BicepLong,BicepShort,Brachiorad,FlexCarpiRad,FlexCarpiUln,ExtCarpiRad,
-0.000669884,-0.0242133,-0.000569509,0.00384981,-0.00302298,-0.00769121,0.00285971,-0.00486739,-0.00467938,0.000435349,-0.00195807,-0.00679867,
0.0153356,-0.00744471,-0.00253314,0.00805281,0.00484848,0.00566953,0.000864768,-0.0037975,0.000882957,0.0093868,-0.00131456,-0.00362466,
0.0223285,-0.0209503,-0.00707261,0.0087162,0.0185161,0.0119493,0.00176558,-0.00852397,-0.000958487,0.00417324,0.00705339,0.0140362,
0.0148357,-0.0315716,-0.0100027,0.00873748,0.0257461,0.0153338,-0.00763778,-0.00713504,-0.00666188,0.010872,0.00286334,0.0213948,
0.00509112,-0.0512222,-0.00778199,0.00489728,0.0255726,0.0209748,-0.00159025,-0.00961104,-0.00914399,0.0124204,-0.00551429,0.0158759,
0.00243081,-0.0728207,-0.00298605,0.00717582,0.000610776,0.0166389,-0.0074572,-0.0143424,0.00447334,0.0084964,-0.00777742,0.00102112,
-0.00859848,-0.124056,-0.000122043,0.00881233,-0.0108283,0.00458033,-0.00592239,-0.0152122,0.0129424,0.00360731,-0.00617972,-0.000311223,
-0.00513898,-0.181105,-0.000799656,0.0133482,0.00477681,-0.0113372,-0.0124393,-0.0238105,0.0252782,-0.00353457,-0.00361873,0.00189893,
0.00862396,-0.214995,-0.00405304,0.0149885,0.0223147,0.0252266,-0.0134867,-0.0217867,0.0260278,-0.00584647,-0.00234811,0.00411054,
0.0297928,-0.20963,0.00589299,0.0105137,0.0340586,0.0859414,-0.0187231,-0.0207308,0.0171234,-0.0116988,-0.00236791,0.00922139,
0.0316462,-0.1766,0.00714639,0.0169868,0.0509546,0.110283,-0.0255732,-0.00937467,0.0198137,-0.00113119,-0.00142458,0.0130465,
0.019657,-0.132325,0.00196079,0.00768655,0.0411302,0.0969626,-0.0292081,-0.00800081,0.0254066,-0.00472796,-0.00305955,0.0194496,
0.0124978,-0.0845335,0.00933077,0.00225137,0.0354917,0.0830053,-0.0315596,-0.00179984,0.0329366,-0.00478227,-0.00340954,0.0316502,
0.0117781,-0.0657406,0.000925455,-0.00833317,0.0263125,0.0436211,-0.0316622,-0.00139582,0.0279168,-0.00386957,-0.0015088,0.0377369,
0.0094491,-0.0637133,-0.000397274,-0.00603838,0.0303332,0.0116484,-0.0298379,-2.79749e-05,0.0325615,0.0025174,-0.00347424,0.0315929,
0.0187103,-0.061389,-0.00848092,-0.0053517,0.016969,0.0051159,-0.0428278,-0.000593746,0.0391443,0.0147007,0.0016401,0.00484794,
0.0270057,-0.0661725,-0.0101258,-0.0111023,-0.00637551,0.00985829,-0.0464864,-0.00244924,0.0463779,0.0198026,-0.00483843,-0.0325176,
0.0388422,-0.0568159,-0.0137025,-0.00912479,-0.0368032,0.00494935,-0.0491841,0.000200535,0.0590916,0.0229744,-0.00745667,-0.0370413,
0.0368348,-0.0761374,-0.00987466,-0.00843356,-0.0482372,-0.00896699,-0.0393311,0.00252646,0.063442,0.0161675,-0.00331717,-0.0273957,
0.0261342,-0.112225,-0.0111979,-0.00291172,-0.0300534,-0.0380076,-0.0317368,0.00806991,0.0632927,0.0132255,-0.000790443,-0.0106633,
0.00674008,-0.116788,-0.00897982,-0.00125175,-0.0247485,-0.0612461,-0.0209279,0.00298741,0.0544583,0.0112509,-0.00567147,-0.00165304,
0.000866109,-0.0969084,-0.0125566,0.00427297,-0.0213767,-0.048742,-0.0101238,0.00466383,0.0488509,0.00863396,-0.0073362,0.00703987,
-0.00983877,-0.0793072,-0.0129139,0.00722358,-0.0244453,-0.0275381,-0.00157797,0.00311899,0.0348805,0.0105258,-0.00417493,0.019279,
-0.0176483,-0.0652719,-0.0106955,0.00631229,-0.0181791,-0.00922423,0.00310001,0.00511367,0.023493,0.00598027,-0.00166068,0.0234748,
-0.0251384,-0.0589873,-0.00847684,0.0121632,-0.0141684,0.0197214,0.00294447,-0.00255175,0.0172639,0.0123823,-0.00108124,0.01673,
-0.0178219,-0.0324439,-0.00271643,0.00610359,-0.0114473,0.0174465,0.00149691,-0.00345823,0.0197343,0.000757048,-0.0024366,0.025122,
-0.0243521,0.00276888,0.00240056,0.0109914,0.00189603,0.0254819,0.0116351,-0.0024349,0.0218898,0.00780585,-0.00218541,0.0599191,
-0.0250908,0.0289449,0.00333289,0.00590019,-0.00375727,0.0174284,0.0114673,-0.00141341,0.0098866,-0.00124109,-5.72687e-06,0.0834542,
-0.0293745,0.049626,0.0081292,0.00982464,0.00346507,0.0177539,0.0225635,0.00250372,0.00561666,0.00548844,0.000239147,0.0680405,
-0.0281892,0.0834854,0.00713133,0.000550644,-0.00412406,0.006498,0.0265732,0.00416542,-0.00315406,0.00159513,0.00112474,0.0391113,
-0.0373101,0.102193,0.00774406,0.00286766,0.0108206,0.00201159,0.0344427,0.00646918,0.000637173,-4.33887e-05,-0.00185612,0.00535913,
-0.0461134,0.101241,0.00642611,-0.000609249,0.0138511,0.000753438,0.0320063,0.00297615,-0.0126285,-0.00425632,0.00288646,-0.00585102,
-0.0603942,0.0960843,0.00800668,-0.00118772,0.0101185,0.0107722,0.0295664,-0.000840653,-0.0323273,-0.00589266,0.0053723,-0.0222062,
-0.0521437,0.0876883,0.00797867,-0.00434083,0.00284222,0.00663457,0.0245475,-0.000795999,-0.0404305,-0.00752798,0.00206002,-0.0144098,
-0.0467953,0.0927942,0.00956157,-0.00523954,0.00103641,0.00669135,0.0169494,-0.00622621,-0.0404798,-0.0123818,0.0113003,-0.0111147,
-0.0340468,0.0772761,0.00728241,-0.0054936,-0.00205974,0.00804516,0.00612822,-0.00360973,-0.0347287,-0.0149811,0.0131328,0.00184461,
-0.0296735,0.064314,0.00468262,-0.00767863,0.00224609,0.0622068,0.000776403,0.00125848,-0.0366991,-0.0114626,0.0123865,0.019317,
-0.0137147,0.0365228,0.00723524,-0.00986302,-0.0108357,0.122173,-0.00908636,0.000651819,-0.0341571,-0.00568969,0.00841753,0.0310002,
-0.0112819,0.00999945,0.00592595,-0.0139785,-0.0281057,0.120979,-0.00768499,-0.00446389,-0.0193761,0.00909844,0.0012259,0.0262702,
-0.00402431,-0.00270046,0.00687167,-0.0113326,-0.0514954,0.087279,-0.0156238,-0.00700593,-0.00684358,0.0122975,-0.00693489,0.0163948,
-0.00964854,-0.00737211,0.00620913,-0.00643261,-0.0520303,0.0481147,-0.00972312,-0.00794011,-0.00203247,0.0103463,-0.00447496,-0.00764038,
-0.00787212,-0.0252639,0.0110211,-0.0060393,-0.0387247,0.010891,-0.011553,-0.00887613,0.00149611,0.00614227,0.00152291,-0.0184704,
-0.00931901,-0.0670001,0.00553232,0.00143723,-0.0173735,-0.00958325,-0.00662614,-0.00369709,-0.00366247,0.00354873,0.00622955,-0.0103004,
-0.00175524,-0.0952356,0.00229866,0.00118764,-0.00890283,-0.0339126,-0.00878605,-0.00721227,-0.0271664,-0.00999012,0.00159635,0.0101088,
-0.00417523,-0.0909759,0.00486142,0.00866514,0.00149665,-0.0469662,-0.00805255,-0.00300261,-0.0268413,-0.00324594,-0.00014293,0.0131384,
-0.00659861,-0.105088,0.00227459,0.000689905,-0.00259397,-0.0706362,-0.0131181,-0.0110285,-0.0184622,-0.00133025,-0.00735884,0.011666,
-0.00226444,-0.134996,0.00355253,0.00301728,0.0106977,-0.0791678,-0.00981719,-0.0065003,-0.000419258,0.00283965,-0.00588597,0.00665726,
-0.00662575,-0.139491,-0.000641099,-0.000127908,0.0152944,-0.0773901,-0.0132811,-0.00487123,-0.000399438,0.00185906,-0.00506069,0.00100967,
-0.0142093,-0.1263,-0.00322358,0.00960502,0.013128,-0.0759273,-0.00805668,-0.00195598,0.00509916,-0.000408751,0.0102482,-0.00495498,
-0.0124593,-0.105081,-0.00355104,0.00549485,-0.00352822,0.000232861,-0.0186114,-0.0103102,0.00674033,0.000865317,0.0197584,-0.00415409,
-0.0065265,-0.0764762,-0.000657679,0.00621421,-0.0131039,0.0419522,-0.0175801,-0.00514434,0.0141825,-0.00655256,0.0324842,-0.00173884,
0.00230151,-0.0533633,-0.00548952,0.00242673,0.00114193,0.0724105,-0.0184844,0.00130793,0.0161577,0.000839334,0.0381233,-0.000928759,
0.00855192,-0.0476534,-0.00355918,0.00443453,0.013454,0.0784081,-0.0100562,0.0077589,0.0149196,-0.00207049,0.0334563,0.000207706,
0.00514222,-0.0258637,-1.77406e-05,0.00837426,0.0167497,0.0902074,-0.0174068,0.0055162,0.00853676,0.00693193,0.0303948,0.009719,
0.00140894,0.0168357,0.00481286,0.00169013,0.0103852,0.101691,-0.00930787,0.00166264,-0.0116833,0.00144732,0.0199244,0.02181,
0.00604472,0.0810896,0.00320601,0.00466445,-0.000166404,0.108997,-0.00829512,-0.00315783,-0.0161218,-0.00210531,0.00236685,0.0203836,
5.51676e-05,0.0957497,0.00481997,0.00570724,-0.0078224,0.101177,-0.00374435,0.00393253,-0.00960776,-0.00597959,-0.0032836,0.0150979,
-0.00207212,0.118122,0.00933279,0.00514039,-0.00904136,0.072758,-0.00756729,-0.00121187,0.00141995,-0.00341476,-0.0102267,0.00466491,
-0.00033695,0.117945,0.00676425,0.00103218,0.00454728,0.0173012,-0.0030228,0.00523275,0.0176053,-0.000205814,-0.0229699,-0.000291419,
0.00332922,0.0852395,0.0083823,0.0014311,0.019422,-0.0358974,0.00119683,0.00266216,0.0260708,-0.00601104,-0.0276698,-0.00363455,
0.00731688,0.0682965,0.0148308,-0.00493091,0.0278562,-0.0749268,0.00734535,0.00781741,0.0322895,-0.00215781,-0.0275461,-0.00117942,
0.00905067,0.0709798,0.00840291,-0.00517622,0.0285623,-0.123611,0.00222328,0.000416208,0.0240275,-0.00796267,-0.0316133,-0.00355027,
0.0101405,0.0730075,0.014532,-0.000592669,0.0125257,-0.128509,0.00772284,0.0026726,0.0102994,-0.00571883,-0.0263499,-0.0104253,
0.00768908,0.0846819,0.011004,0.000771122,-0.0125268,-0.119238,0.000986288,-0.00569572,-0.0101827,-0.00830397,-0.0194827,-0.0195512,
0.00845733,0.11051,0.013272,0.00310034,-0.0227716,-0.0861423,0.00165222,-0.00344052,-0.00651229,-0.00123071,-0.014875,-0.0277086,
0.00471883,0.118299,0.0139314,0.0054291,-0.0165991,-0.0623807,-0.00122526,-0.0047272,-0.00637648,-0.0063911,-0.0163902,-0.0229858,
0.00291256,0.100964,0.0197427,3.07186e-05,0.00148372,-0.0411928,0.00201226,-0.000219383,-0.00108281,-0.00640025,-0.0163017,-0.0137533,
0.0110872,0.062692,0.013965,-0.000539127,0.013448,-0.0245103,-0.00022501,0.00267832,-0.0093039,-0.00769701,-0.00817075,-0.00419663,
0.0118581,0.0150717,0.0139829,-0.00400712,0.0144646,-0.00557252,0.00429686,0.00976091,0.000832509,-0.00480833,-0.0135674,-0.00912508,
0.0155274,-0.0361021,0.0111039,0.000894649,0.0151577,0.0297861,0.010105,0.0145896,0.0164487,0.00355357,-0.00641431,-0.010188,
0.00889573,-0.0525184,0.00339608,-0.00482848,0.00393731,0.0484056,0.0078632,0.0123354,0.0185502,0.00676465,-0.012145,-0.00867337,
0.0164307,-0.054782,0.00180543,-0.00282586,-0.00309947,0.0583345,0.0127029,0.0126564,0.0148636,0.00740045,-0.00757949,-0.00361526,
0.018816,-0.0602779,-0.00300459,-0.0114483,-0.0220498,0.0611825,0.0133561,0.00718232,0.00989594,0.0135096,-0.00108834,-0.00274038,
0.0241001,-0.0583822,-0.00556112,-0.00655009,-0.0426114,0.0569494,0.0140084,0.00202999,0.00332536,0.00867295,-0.0036175,0.0036095,
0.01683,-0.0806454,-0.0139129,-0.0116332,-0.0416046,0.0646298,0.0124061,0.00589186,0.00481005,0.0192898,-0.00647451,0.000946943,
0.0140685,-0.0964829,-0.0122849,-0.0102785,-0.0257901,0.0430147,0.015632,0.00653412,0.00533557,0.0160635,-0.00772765,0.00504707,
0.00712341,-0.110402,-0.0119453,-0.00634933,-0.0125527,0.0191472,0.0166035,0.0100737,0.015526,0.010262,-0.00673299,0.0136562,
0.00339924,-0.129808,-0.0141819,-0.00628465,-0.00543369,-0.0134119,0.00791591,0.0033109,0.0128452,-0.00809514,-0.00542212,0.0135748,
-0.00740609,-0.12508,-0.0157755,-0.00364557,-0.00185735,0.0116571,-0.00302597,0.000411197,0.0108149,-0.00810136,-0.00637051,0.00222714,
-0.00211276,-0.101693,-0.0164042,-0.00551484,-0.0111599,0.00260035,-0.00624197,-0.0102154,-0.0079501,-0.0151902,-0.00925615,0.00021748,
-0.00229087,-0.0673716,-0.0199315,-0.00159031,-0.0262585,-0.00774429,-0.00527342,-0.00828643,-0.00159729,-0.00682564,-0.013757,-0.00822941,
-0.00826237,-0.0198624,-0.0224941,-0.00442773,-0.0271926,-0.0254941,-0.00849078,-0.0140844,0.00122037,-0.0132704,-0.0144,-0.00766037,
-0.0151981,0.0141142,-0.024092,-0.00243718,-0.00655738,-0.0406691,-0.00398216,-0.0127999,0.00887328,-0.0103787,-0.0118289,-0.0141726,
-0.0166592,0.0319833,-0.0250474,-0.00559885,0.00602868,-0.0436114,-0.00559102,-0.0121596,0.0113812,-0.0100625,-0.00668747,-0.00104492,
-0.0232697,0.0372868,-0.0192431,-0.0029667,0.0108877,-0.0381845,-0.00204933,-0.00765625,0.013895,-0.00974626,0.00134635,0.0101525,
-0.0202203,0.0419373,-0.0192351,0.0019179,0.0157465,-0.0266423,-0.000761726,-0.00959197,0.0109416,-0.00685437,0.0100191,0.0245706,
-0.0281151,0.052696,-0.0169748,-0.00124716,0.0193175,-0.0353841,-0.000440371,-0.00605487,-0.003918,-0.0104012,0.0070971,0.0296536,
-0.0208768,0.0502469,-0.0105303,-0.00151584,0.0338345,-0.0399426,-0.00269492,-0.00573733,-0.0113673,-0.0126601,0.0122189,0.034094,
-0.004944,0.0407075,-0.00795029,-0.00017589,0.0335425,-0.0387081,0.00020129,-0.00638572,-0.0175234,-0.00815802,0.0102535,0.0221164,
0.026766,0.035024,-0.00537132,0.00406047,0.0142563,-0.0323245,-0.00334159,-0.00542444,-0.00371377,0.000529556,0.00763962,0.0127152,
0.0343327,0.0241827,-0.00536885,-0.000718593,0.00140929,-0.0291625,0.000520001,0.00100989,0.00720361,0.00760774,0.0133919,0.00653429,
0.034819,0.0152664,-0.00150395,0.00158403,-0.00725195,-0.0301878,0.000518159,0.00519072,0.00685815,0.00792552,0.0149546,-0.00286547,
0.0343419,0.00763174,-0.00504452,0.00388564,-0.00979573,-0.0209131,0.00470149,0.00679617,0.00683964,0.0143606,0.0252054,-0.0241766,
0.0148727,-0.00644768,-0.00279083,-0.000252598,-0.00750974,-0.0116404,0.00341181,0.0106554,0.00360663,0.00952825,0.0257939,-0.0445217,
0.00860571,-0.00346978,-0.00246939,-0.000206587,0.0157032,-0.00236968,0.00276605,0.014515,0.00874889,0.00855969,0.0344267,-0.0526329,
0.00169736,-0.0149846,-0.00118263,-0.00305904,0.0192784,-0.0027591,0.00147652,0.0132238,0.00198397,0.00147477,0.028568,-0.0491542,
0.00638147,-0.00879753,0.00364508,0.00374579,0.0151279,-0.00636974,0.00791375,0.0161182,0.00423796,0.00308285,0.0278561,-0.0385928,
0.0204044,0.00768699,-0.00279547,-0.00361579,0.000354252,-0.0151332,0.0114537,0.0116084,-0.00541549,0.000184328,0.0226329,-0.030285,
0.0257375,0.0299621,0.00460728,0.0022213,-0.0144185,-0.0213227,0.014672,0.0193327,0.00199826,0.00372523,0.0161176,-0.0210114,
0.0159417,0.0503015,0.000741964,8.89794e-06,-0.0237172,-0.0162457,0.0117736,0.0154674,-0.00378347,0.0069448,0.0076662,-0.0175328,
0.00679227,0.0394089,0.00653491,4.91581e-05,-0.00339619,-0.0153554,0.0120949,0.0145,-0.00408817,0.00630168,0.0014639,-0.00825919,
0.00183043,0.0330198,0.00460134,0.000410439,0.0140284,-0.00577382,0.00919713,0.0093477,-0.00277928,0.00533723,-0.00120168,0.0061657,
0.00588525,0.0385394,0.00975068,-0.000516956,0.027269,-0.0100369,0.00984099,0.00902476,-0.0027544,-0.00335322,-0.00998892,0.0193031,
0.00897644,0.0607968,0.0126467,0.00241805,0.0379353,-0.00110118,0.00308046,0.00258511,-0.00143812,-0.00141897,-0.018781,0.0224606,
0.0152892,0.0643786,0.0142553,-0.000764727,0.0354032,0.000429096,0.000505424,-0.00224471,-0.00301579,-0.00688879,-0.0195296,0.0278722,
0.0190284,0.064738,0.0155424,0.00345628,0.0315847,0.0138707,-0.00496686,-0.00385505,-0.00394618,-0.00785082,-0.0167419,0.0342501,
0.0172965,0.0612312,0.0113569,-0.00616709,0.0264796,0.0170097,-0.00882924,-0.00707513,-0.000688049,-0.0126756,-0.01074,0.0267849,
0.0133127,0.0413024,0.0139327,0.00352519,0.0284584,0.0156413,-0.00754037,-0.011905,0.00192938,-0.00848531,-0.0082847,-0.00224981,
0.0141597,0.0204047,0.0100702,0.00291448,0.0252872,0.013629,-0.00657329,-0.011262,0.00197432,-0.000431114,-0.00197137,-0.0222697,
0.00277445,0.00948396,0.012647,0.0068101,0.0208293,0.00936312,-0.00657187,-0.00965339,-0.000875258,0.000862958,-0.00306805,-0.0432549,
-0.0028146,-0.00916672,0.00266866,0.00523187,0.0144405,0.000268278,-0.00463866,-0.00611337,0.00497043,0.00408937,0.000337072,-0.0417037,
-0.00518309,-0.0265332,0.00975376,0.00300891,0.015779,-0.0123676,0.000836074,-0.00836857,0.00180445,0.000877671,-0.00592149,-0.0475567,
-0.00272149,-0.0422936,0.013298,0.00432646,0.00520608,-0.0111596,-0.00560089,-0.000965806,0.00765546,0.0137638,-0.00703444,-0.0463264,
-0.00283464,-0.0541946,0.0107259,0.00338955,-0.00890787,-0.00930725,-0.00946214,-0.00483133,-0.000334566,0.0105536,-0.00622124,-0.0460612,
0.0160474,-0.0590168,0.00879804,0.00406149,-0.0185145,-0.00809808,-0.00527465,-0.00515582,-0.00317116,0.0105636,-0.00187219,-0.0454732,
0.0313886,-0.0651307,0.00429509,-0.000418542,-0.0194288,-0.00785396,-0.0075258,-0.0106317,-0.0172735,0.00542337,0.000539661,-0.0423086,
0.0444764,-0.0847701,0.00365579,0.00314907,-0.0348307,-0.0175891,-0.00494757,-0.00484001,-0.0143108,0.00575688,-0.00252707,-0.0246553,
0.0482279,-0.090248,0.00430456,-4.50269e-05,-0.0389651,-0.0121919,0.000528404,-0.0064533,-0.0107022,0.00512533,0.00438083,0.00684317,
0.0397455,-0.0593502,-0.00341694,-0.00484979,-0.031832,-0.00969082,0.00278527,-0.00613526,-0.0115989,-0.00291013,0.0058101,0.0199929,
0.0209604,-0.0239487,-0.00791884,0.00193439,-0.0166509,0.00086022,0.00375472,-0.0016323,-0.0102402,0.0019328,0.00852152,0.0328228,
0.0127986,0.0207858,-0.00887929,-0.00995507,-0.0130604,0.0172079,0.00375874,-0.00614402,-0.00469447,0.00226924,0.0028568,0.0340654,
0.0120403,0.0648736,-0.00951773,-0.00349484,-0.00625113,0.0325915,0.000221809,-0.00614881,0.000209051,0.00453802,0.00523494,0.028228,
0.0087049,0.0722573,-0.0130537,-0.00894749,-0.00877891,0.0341336,0.00441194,-0.00905133,-0.00454406,0.00165637,0.00116852,0.0269009,
-0.00268097,0.0712682,-0.00918495,0.00105205,-0.0058344,0.0331024,0.00924644,-0.00744686,-0.000281213,-0.000580776,0.0028913,0.0339474,
-0.0134253,0.0561113,-0.0194817,-0.0114854,-0.00997335,0.0240248,0.00281347,-0.00648645,-0.000202099,0.000402089,0.0010669,0.0380999,
-0.0244942,0.0306502,-0.011106,-0.00180985,-0.00670836,0.0110863,0.00281987,-0.00777974,-0.00108734,-0.000868083,0.00309995,0.0380706,
-0.036854,0.00776254,-0.0172177,0.000460006,-0.00762934,0.0110279,0.00572428,-0.00778531,0.00157019,0.00236946,0.00158573,0.0364353,
-0.0472855,0.0038674,-0.00369098,0.00530439,-0.00597548,0.0151572,0.00573175,-0.00746893,0.00551685,-0.00501659,0.00167527,0.0254673,
-0.0535355,-0.000995601,-0.00497364,0.00660641,-0.00528814,0.0202547,0.00252037,0.00282773,0.00624539,0.00466076,-0.00242645,0.0161128,
-0.0411168,-0.0158408,-0.00174911,0.00179054,-0.00395756,0.00893576,0.00252895,0.000246877,0.00311188,-0.00143662,-0.00460257,0.0199617,
-0.0322437,-0.0165227,-0.000134259,0.00148088,0.00960619,0.0108189,0.0057575,0.0115098,0.0109256,0.0024466,-0.00292149,0.0286435,
-0.0272383,0.00371975,-0.00173875,-0.00559056,0.00836001,-0.000173115,0.00190388,0.0124708,0.00393107,-0.00139641,-0.00285629,0.0347534,
-0.0251349,0.0117264,0.000198241,-0.00332666,0.00582552,-0.00118246,0.00320186,0.00956893,0.011425,0.00345335,-0.0111678,0.0331404,
-0.0265775,0.0181214,0.00438898,-0.0068587,-0.000250882,0.00199591,0.00256872,0.00312612,0.0140907,0.00411816,-0.00499812,0.0305651,
-0.0254494,0.0364262,0.00246303,-0.00363093,-0.00214256,-0.00737902,0.0067652,0.000869032,0.0116062,0.00252965,-0.0062394,0.0231641,
-0.0153116,0.0566609,-0.00300405,-0.00136996,-0.000493371,-0.0157857,0.00903053,-0.00525084,0.00171786,0.00738021,-0.00201396,0.0228491,
-0.0161248,0.0556453,-0.00203202,-0.00136352,-0.00624934,-0.018395,0.0096866,-0.00589714,-0.00301882,-0.00161256,-0.00713116,0.0157765,
-0.0156551,0.0449695,0.00119392,-0.00167995,-0.00395723,-0.00458282,0.00808951,-0.00461118,-0.00196001,0.000340847,-0.00324032,0.00967267,
-0.0103612,0.0384766,-0.00395028,-0.00360701,-0.00102167,0.0559134,0.00488309,-0.0104073,-0.0070177,-0.00253479,-0.0112677,-0.000935641,
-0.0163401,0.0323034,0.000886113,0.00186972,0.00352317,0.0948419,0.00135507,-0.00976383,-0.00177295,-0.00444455,-0.00674567,-0.0144389,
-0.0239336,0.0229081,-0.00747668,-0.00746376,0.00549209,0.0684186,0.00265645,-0.00879765,0.000896443,-0.0111835,-0.00995661,-0.0324471,
-0.020586,0.00385166,0.00315558,-0.000700966,0.00359733,0.0494022,0.00299224,-0.00718673,0.00453174,-0.0195321,-0.0151055,-0.0507751,
-0.0146676,-0.025832,-0.00134291,-0.00971414,0.00620942,0.0303879,-0.000213177,-0.00686264,0.0065573,-0.0179006,-0.0128561,-0.0459214,
-0.0225975,-0.0481143,0.00446132,-0.00617236,-0.00115903,0.0123414,0.000122874,-0.00074256,-0.00107556,-0.0201325,-0.0112569,-0.0384903,
-0.0289223,-0.0707222,0.0006079,-0.00520685,0.000486582,-0.00441584,0.000780907,0.00505671,-0.00999644,-0.0175353,-0.0170685,-0.023009,
-0.0217301,-0.076271,0.00544758,-0.00327621,-0.0165407,-0.0218156,-0.00306827,0.0024867,-0.00668389,-0.016226,-0.0209547,-0.0229792,
-0.011001,-0.0769947,0.00384912,-0.00166815,-0.00781301,-0.0450092,-0.00466394,0.011186,-0.00884485,-0.00654612,-0.0180862,-0.0197283,
0.0109919,-0.068708,0.00225139,-0.00134844,-0.00713409,-0.062085,-0.00271838,0.0102284,-0.0171233,-0.00040759,-0.0174774,-0.00971496,
0.0307271,-0.0478697,0.00162027,0.000902389,-0.00130433,-0.0846333,-0.00109497,0.0186086,-0.00994917,0.00122387,-0.013333,0.00448527,
0.0276005,-0.0315424,-0.00222947,-0.00135445,-0.00770855,-0.0772404,-0.00687648,0.0176541,-0.0088927,0.00156774,-0.0159552,0.00709728,
0.0280114,-0.0174726,-0.000283414,0.00218326,-0.0144349,-0.0440918,0.00021939,0.0257155,-0.00107626,0.00513127,-0.0111784,0.0200132,
0.0171506,-0.000187106,0.00101962,0.00539866,-0.0179419,-0.00321609,-0.00298724,0.0257301,-0.00646032,0.00611956,-0.0150994,0.0274578,
0.00757392,0.00325137,-0.0012178,0.00217491,-0.00277623,0.0176996,-0.0042626,0.0276779,-0.0169964,-0.000940335,-0.00711394,0.0274994,
-0.00168437,-0.0116642,-0.00152264,0.000882568,0.0111017,0.026704,-0.00457258,0.0225446,-0.0249579,0.00777534,-0.0100796,0.0169187,
0.000643731,-0.0252952,0.00203678,-0.00427329,0.0133898,0.0205777,-0.00552692,0.0174129,-0.0145697,0.013594,-0.0133721,0.00569574,
-0.00347048,-0.0479436,0.00527526,0.00570197,0.0301655,0.0118764,-0.00358429,0.016468,0.000968557,0.0200571,-0.0182791,0.00542041,
-0.0066223,-0.0554635,0.00432952,0.000867798,0.0289127,-0.00905821,0.00447471,0.018744,0.00298422,0.0152527,-0.0238345,0.0090099,
-0.0226552,-0.0497864,0.00660425,0.0085893,0.0279821,-0.0116415,0.00899177,0.0155482,0.0059647,0.00690747,-0.0203797,0.00616199,
-0.0116482,-0.040892,0.00405092,-0.000108261,0.0157839,-0.0190535,0.00642551,0.0104221,-0.00715294,0.00693331,-0.0133876,0.0100762,
-0.0164196,-0.0242729,0.0101911,0.0095449,0.0177513,-0.0177724,0.00579027,0.00916037,-0.0263885,0.00760358,-0.0118723,0.0130258,
-0.0153992,-0.000894546,0.00763999,0.00632043,0.0103827,-0.0139153,-0.00128449,0.000494941,-0.0285621,0.00827437,-0.00842884,0.0143669,
-0.0153476,0.0353604,0.0121727,0.00470576,0.00687758,-0.00522847,-0.00192114,0.000844706,-0.0172151,0.00508236,-0.00595434,0.00444102,
-0.00242122,0.0384546,0.00897987,0.00470091,0.0030506,-0.00104817,-0.00352438,0.00280485,0.00765248,0.00671995,-0.0057363,-0.000976774,
-0.00140947,0.0302806,0.0102953,0.00437424,0.0127452,-0.00427185,0.00195427,-0.00424886,0.00708582,0.00159718,-0.0106719,-0.00671575,
0.00281909,0.0446425,0.00710464,0.00597935,0.015679,0.00055377,0.00356876,-0.00228783,0.0129572,-0.00159353,-0.0107806,-0.00923467,
0.00414769,0.0673753,0.00520275,0.00533102,0.0192566,0.00634602,0.00614816,0.000961179,0.00273075,4.52291e-05,-0.00960338,-0.0136847,
0.0177077,0.0868892,0.0084529,0.00339507,0.0147853,0.0124611,0.00486329,0.00195667,0.00602517,0.00297207,-0.0135788,-0.0142711,
0.023539,0.0745317,0.00816262,0.00210315,0.00226519,0.0172893,-0.000285897,0.00295207,-0.0116073,0.00461139,-0.0178774,-0.021618,
0.0280804,0.0467219,0.00561962,0.00403078,-0.00961156,0.00763106,-0.000285088,8.3938e-05,-0.0166846,0.000455981,-0.0167039,-0.027355,
0.0268248,0.0208448,-0.000141985,0.00628049,-0.0115087,0.000549357,-0.00189512,0.00333232,-0.0217624,0.0037054,-0.0229354,-0.0272969,
0.0239576,-0.00567522,0.00504318,0.00209148,-0.0317574,-0.0129702,-0.00672577,0.000463264,-0.0184703,0.00180386,-0.029489,-0.0294923,
0.0220544,-0.0228579,0.00475599,0.00530723,-0.0301148,-0.0271326,-0.00640659,0.00145682,-0.00841775,0.00473151,-0.0276718,-0.0143028,
0.00501795,-0.021045,0.00028416,-0.00435461,-0.0233221,-0.0226213,-0.00673259,-0.0046332,0.0141902,0.00379585,-0.0322925,-0.00136683,
-0.00300592,-0.0182652,0.0038614,0.00047099,-0.00204305,-0.01167,-0.00190887,-0.00686092,0.0329347,0.0025382,-0.026288,0.0112473,
-0.00459282,-0.0261085,0.000678292,-0.0127321,-0.0071643,0.00700906,-0.00481313,-0.0206797,0.0500694,0.00224625,-0.0357348,0.0171007,
0.00637416,-0.0448967,0.00522215,-0.00114568,0.000269108,0.0173189,0.000329743,-0.0232318,0.0575458,0.00131023,-0.030692,0.0297151,
0.00639324,-0.0530597,0.000751905,-0.00243692,-0.00453241,0.0208693,-1.85056e-06,-0.0338339,0.0383009,-0.00123577,-0.0266121,0.0442612,
-0.00356975,-0.040295,-0.000498737,0.000457087,0.00322067,0.014441,0.00546003,-0.036711,0.0209876,-0.0105429,-0.0183435,0.0562318,
0.00417219,-0.0468455,-0.00400288,0.00109749,0.00421179,0.00737017,0.00351573,-0.0444187,0.0265321,-0.00504103,-0.0223047,0.0533931,
0.00225398,-0.0620866,-0.00106817,-0.00244737,0.0052017,-0.00613796,0.00317959,-0.0482648,0.0346519,-0.00919791,-0.0178906,0.0305938,
0.0006558,-0.0592971,-0.00746986,0.00495378,0.00136126,-0.00676688,-0.00359699,-0.0443858,0.0440591,-0.00273121,-0.0147588,0.0168086,
-0.00834896,-0.0178723,-0.0109742,0.00205276,0.00299257,-0.00288705,-0.00361441,-0.0388988,0.0347932,-0.00914274,-0.0100114,0.00173512,
-0.0031902,0.0200138,-0.0199518,0.00462471,0.00140315,0.00550156,-0.00556516,-0.0337351,0.0326093,-0.00847214,-0.00879848,-0.0175243,
0.00454215,0.0582249,-0.0205593,-0.0027836,-0.00598256,0.00745296,-0.00944927,-0.0314702,0.0288147,-0.0135971,-0.000817373,-0.0290581,
0.0116287,0.075835,-0.0124746,-0.00149953,-0.00177974,0.00393301,-0.00818404,-0.0172947,0.0382186,-0.0074548,0.00202083,-0.0338323,
0.00776721,0.0728444,-0.0140486,0.0039697,0.00403138,0.0139363,-0.00627669,-0.00955898,0.0337774,-0.00968363,0.00454596,-0.0260521,
0.00293794,0.063097,-0.00918408,0.00203418,-0.0110852,0.0290924,0.000458013,-0.00311179,0.00776434,-0.00933759,0.00321737,-0.0134442,
-0.000605563,0.0388663,-0.00882717,0.00428379,-0.00785254,0.0291189,0.00236181,0.0110615,-0.00601713,0.000987987,0.00447459,-0.005989,
0.00325357,0.0143178,-0.0132998,-0.00409081,-0.00912859,0.0236741,0.0065174,0.0213711,-0.0185134,0.00068882,0.00542087,-0.0114132,
0.0067887,0.00168546,-0.00328535,0.000734072,-0.0100842,0.0201627,0.00841759,0.0320026,-0.0294028,0.00393037,0.0105641,-0.0255318,
0.00259512,-0.00192816,-0.0103342,-0.00603113,-0.0203777,0.0115017,0.0106379,0.0332978,-0.0560706,-0.000233378,0.0150758,-0.0309598,
0.00516019,-0.0100446,-0.00321788,-0.00249436,-0.0120001,0.0112127,0.0141441,0.0391005,-0.0695423,-0.00375387,0.0128398,-0.0402531,
0.0086889,-0.0149371,-0.00479428,-0.00829411,-0.00233622,-0.00903532,0.014751,0.0336356,-0.0675647,-0.00405555,0.0141588,-0.0363488,
0.000625483,-0.014996,-0.00379535,-0.00346998,0.00732616,-0.0260626,0.0153559,0.0252737,-0.0623716,0.00175907,0.0125948,-0.0247199,
0.00994465,-0.0134405,-0.00440629,-0.0028313,0.0153774,-0.030211,0.0130614,0.0159465,-0.0507438,0.00435367,0.0116897,-0.0153467,
0.00767157,-0.00672932,-0.000832107,-0.000905058,0.0202077,-0.0118224,0.0120525,0.0127368,-0.0407299,0.00565994,0.00951241,-0.0156336,
0.0108691,0.0102889,-0.00369681,-0.00960311,0.0192417,-0.000837312,0.00202708,0.0085619,-0.0268569,0.00889729,0.0170097,-0.0101275,
0.00569364,0.0276339,0.00245286,-0.00735532,0.00990376,0.00757323,-0.00188369,0.00181208,-0.0306949,0.00183193,0.0190508,-0.000437887,
-0.000128247,0.0436962,-8.98271e-05,-0.000600536,-0.0222935,0.0166286,-0.0144893,0.000535902,-0.0303519,0.00281456,0.0227192,0.00860613,
-0.0136794,0.057188,-0.00295433,-0.00575777,-0.0515948,0.0337335,-0.0164732,-0.00782237,-0.0313007,-0.00457387,0.018357,0.0073464,
-0.0127459,0.0610268,0.00351768,-0.0022227,-0.039689,0.0321666,-0.0152403,-0.00104873,-0.0206635,-0.00938733,0.0175548,0.0186409,
-0.0250148,0.0526368,0.000653618,-0.00158523,-0.0187703,0.0299567,-0.0111126,0.00830108,-0.0158252,-0.00486506,0.0190252,0.0251048,
-0.0260186,0.0442518,-0.000600417,-0.000625907,-0.00686731,0.0316106,-0.00827529,0.0163638,-0.00905894,-0.013543,0.0259884,0.0196556,
-0.0305667,0.034584,-0.0050735,0.00129919,-0.0062336,0.0419575,-0.00544073,0.0160566,-0.00680337,-0.00709019,0.025567,0.0122733,
-0.0241716,0.018482,0.0046193,0.000970669,-0.0136496,0.0329882,-0.000677295,0.0176817,-0.0129216,-0.0135156,0.0274198,-0.000261302,
-0.0248622,-0.00244453,0.00465434,0.00579323,-0.00561355,0.0311017,0.00343944,0.0193074,-0.0177553,-0.00513222,0.0299376,-0.0163386,
-0.0210485,-0.0169279,0.00404606,0.00643057,0.0049971,0.0156935,0.00143643,0.0161045,-0.0174408,0.001641,0.0302232,-0.0134225,
-0.0301152,-0.0384899,0.00955528,0.00932156,0.0223677,0.0186355,0.00554743,0.0174092,-0.00328556,0.0106674,0.023448,-0.0166246,
-0.0240534,-0.0500678,0.010236,-0.00195282,0.0239623,0.000328625,0.00289472,0.0100219,-7.8847e-05,0.00810349,0.0234558,-0.00598435,
-0.0147748,-0.0622859,0.00834198,0.00512358,0.0300636,-0.0092869,0.00957537,0.0238831,0.00763279,0.00714896,0.0250959,0.000469494,
-0.0054986,-0.0828708,0.00419505,0.00382959,0.0216768,-0.0147186,0.0062728,0.0483685,0.0047183,0.00587216,0.0319099,0.00692225,
-0.0145754,-0.0580583,0.00745356,0.00382346,0.02166,-0.030776,0.0116596,0.0535375,0.00437755,0.0100681,0.0306985,0.0066132,
-0.0130304,-0.00426744,0.00169848,-0.000367819,0.00168232,-0.0516645,-0.000341622,0.0516236,0.00886435,0.00750296,0.0327301,0.0108104,
-0.00182902,0.027635,0.00399275,0.00252373,-0.00445236,-0.0699797,-0.00268777,0.0377974,0.00240376,0.00204007,0.0325316,0.0066361,
0.00582916,0.0395808,0.00532201,0.00316179,-0.0157386,-0.0853999,-0.0185588,0.0255803,0.00495642,0.00301575,0.032679,0.00278289,
0.00672492,0.0289943,0.000857139,0.00186828,-0.0189768,-0.0757113,-0.0283162,0.00627943,-0.000540413,-0.00824264,0.0302749,0.00601156,
0.0169555,0.0129387,0.00379775,-0.00328844,-0.018674,-0.0531475,-0.0422622,-0.0120569,0.00523,-0.00533586,0.0327241,0.0143905,
0.0513305,-0.00118158,0.00255395,-0.00876702,-0.00388433,-0.0383131,-0.0497729,-0.0287851,-0.00187778,-0.00983403,0.0290807,0.0166517,
0.0622026,-0.0117567,0.00678398,-0.00555309,0.00124675,-0.0312078,-0.0598624,-0.0358571,0.00839899,-0.0104692,0.0302908,0.0176243,
0.0521474,-0.0207184,0.00554182,0.0060314,0.0137822,-0.0231393,-0.0564337,-0.0429314,0.00772962,-0.00595346,0.0279838,0.0160206,
0.032433,-0.0242033,0.00719795,0.00184082,0.00989835,-0.0173267,-0.0613786,-0.0451791,0.00963587,-0.0117401,0.0302085,0.0102308,
0.0181906,0.0148119,0.00692321,0.00215752,0.0179261,-0.0256818,-0.0515173,-0.0529026,0.00961072,-0.00529323,0.0289163,0.0173178,
0.0065227,0.0403093,0.013732,-0.00332066,0.0130761,-0.0427314,-0.0432684,-0.0532245,0.0118396,-0.00657307,0.0292581,0.0250477,
-0.0016049,0.0532547,0.011849,0.000215626,0.0178841,-0.0404664,-0.0369536,-0.0529055,0.0131033,-0.000448345,0.0293022,0.0202209,
-0.012953,0.0295024,0.0128642,-0.00429655,0.0114241,-0.0330519,-0.0322508,-0.06257,0.00438754,0.00567633,0.0229317,0.00509091,
-0.0111027,0.0044661,0.014524,-0.00430146,0.0123685,-0.0175902,-0.0191792,-0.0571065,0.0111259,0.0153424,0.0178731,0.00154962,
-0.0115072,-0.00253791,0.00942352,-0.0104232,0.00848368,-0.00180769,-0.0183428,-0.0516462,0.00788514,0.0150282,0.0195991,-0.00231493,
-0.00643996,-0.00213376,0.00850878,-0.00785232,0.0203738,0.0110766,-0.00720529,-0.0436135,0.0104405,0.0121387,0.0187734,-0.00972226,
-0.0136078,-0.00752118,-0.00399546,-0.00463748,0.0110154,0.0149461,-0.00186328,-0.045242,0.0168605,0.0201952,0.0170055,-0.00972647,
-0.0165917,0.000938176,0.00668042,0.00179694,0.00358844,0.00754751,0.00219085,-0.0320641,0.0252135,0.011189,0.0165486,-0.0152053,
-0.018933,0.0110104,-2.83616e-05,0.00211464,2.43681e-05,0.00304656,-0.00405685,-0.0327323,0.0322803,0.00765582,0.0196564,-0.020364,
-0.0228853,0.0210858,0.000667629,0.00307644,-0.00193046,0.0243014,-0.0103038,-0.0317931,0.026149,-0.00295996,0.0195676,-0.0303536,
-0.0207219,0.0269788,0.000397798,0.0111212,-0.00388581,0.068093,-0.0226664,-0.0231295,0.027424,0.000911699,0.0198234,-0.029721,
-0.0204914,0.0267578,-0.00309155,0.00435688,-0.00519789,0.0767939,-0.0292324,-0.0144676,0.0161449,-0.0035871,0.0194577,-0.0496946,
-0.0154329,0.00625718,-0.00593721,0.00435363,-0.0023254,0.0710086,-0.0219527,-1.22277e-05,0.023862,-0.00164706,0.0165386,-0.0484219,
-0.0219654,0.0150558,-0.00491987,-0.00112235,-0.00750221,0.0674782,-0.0201434,0.0105787,0.0299709,-0.00196063,0.0200801,-0.0107716,
-0.0262452,0.0232128,-0.00647846,0.00112857,-0.0233039,0.0517154,-0.0135017,0.0237444,0.0370472,0.000623238,0.0178481,0.0233355,
-0.0211895,0.0287965,-0.00803752,-0.00112739,-0.0255849,0.0427147,-0.0103977,0.0275734,0.0309254,0.00707034,0.0117739,0.0410219,
-0.0113053,0.0237579,-0.00798744,-0.00467081,-0.0204621,0.0317837,0.000759156,0.0371972,0.0273804,0.00160551,0.013769,0.0426095,
-0.00625073,0.00133614,-0.00858188,0.00241017,-0.00986717,0.0289024,0.0186816,0.0429578,0.0219049,0.00805241,0.0167504,0.0342154,
-0.00377199,-0.0326741,-0.0130403,-0.000166775,-0.0034584,0.0176517,0.0295268,0.0403484,0.00516248,0.00323119,0.0139567,0.00779094,
-0.00901996,-0.051874,-0.0088071,0.00208574,-0.00799652,0.0215332,0.0448852,0.0428906,-0.00835971,0.0122533,0.0127924,-0.0276495,
-0.0123362,-0.0414542,-0.0155207,-0.00435383,-0.004165,-0.00194957,0.065723,0.0399607,-0.0418417,0.00743168,0.0106813,-0.0431312,
-0.0130766,0.00985288,-0.0112891,0.00530405,-0.00130011,-0.0209246,0.0856019,0.0399291,-0.070816,0.0106583,0.00569153,-0.0566829,
-0.0202553,0.0492486,-0.0141412,0.00466015,-0.00262125,-0.0337824,0.0948641,0.0337816,-0.0634106,0.00969941,0.00587111,-0.0670167,
-0.017453,0.0770548,-0.00411638,0.00562633,-0.0074845,-0.0331185,0.104456,0.0257036,-0.049566,0.00616454,0.000917446,-0.0673719,
-0.0114304,0.0910176,-0.0111554,0.00272957,-0.020397,-0.0260157,0.110192,0.0140853,-0.0276728,-0.00187801,0.00563943,-0.0442267,
-0.00926979,0.0969317,-0.00113237,0.00208678,-0.0268713,-0.0134399,0.11143,0.00697521,-0.0057793,-0.00541393,0.00393951,-0.0255899,
-0.00388823,0.0851385,-0.00430982,0.00530765,-0.0101663,-0.0121323,0.10527,0.0121,-0.000948482,-0.00605302,0.00579741,-0.00373454,
-0.00333397,0.0453353,-8.34494e-05,0.00112421,-0.0121345,-0.0092152,0.0952558,0.00724569,-0.00126842,-0.00476119,0.000588596,0.000413322,
0.0139634,-0.00283998,-0.000687022,-0.00305889,-0.00186929,-0.00823006,0.073981,0.00915314,0.000665616,-0.00926511,0.00408775,0.009068,
0.0216049,-0.0297692,0.00353774,-0.00531001,0.00260071,-0.0114305,0.0633379,0.00269105,-0.00673623,-0.00443358,0.00599226,0.0170787,
0.0315026,-0.0647496,0.00261065,-0.00562917,0.00707055,-0.0146314,0.0494826,0.00395648,-0.00415736,-0.00926123,0.0104869,0.0331381,
0.0294914,-0.106172,0.000395045,-0.000153053,0.0102526,-0.00495504,0.0333805,-0.00185997,-0.00769482,-0.00475354,0.00791292,0.0285937,
0.040683,-0.156935,0.00365172,-0.00272518,0.0098933,-0.00847876,0.0182506,0.00101681,-0.00511473,-0.0111929,0.0101817,0.0298448,
0.0322395,-0.163917,0.000790767,0.00146378,0.0101781,-0.00781771,0.00731187,0.000996841,-0.00382169,-0.00121429,0.00602474,0.0236922,
0.0241214,-0.168006,0.00308018,-0.00175162,0.0075656,-0.0103766,-0.00812868,-0.000310229,-0.00252784,-0.00669,0.00445593,0.020438,
0.00924617,-0.156003,0.00987609,0.0027599,0.0139678,-0.00295571,-0.0203449,0.00482215,0.00198632,0.0032864,0.0119136,0.0191167,
0.0175545,-0.133702,0.00797888,0.00340843,0.0110341,-0.00519359,-0.0283716,-0.000990954,-0.00734203,0.00231561,0.00972459,0.0258452,
0.0210376,-0.0740597,0.00897846,0.00598892,0.0171153,-0.00517834,-0.0283458,0.00382051,-0.00411357,0.00585083,0.0130196,0.0232388,
0.0296757,-0.02086,0.00321656,-0.000766611,0.0122508,-0.0141779,-0.0325017,-0.00102587,-0.0066789,-0.00123923,0.0150374,0.0277166,
0.0350983,0.00271762,0.00518056,0.00664361,0.0138258,-0.0247876,-0.0308598,0.00153276,-0.00666742,-0.00124781,0.0103044,0.0289765,
0.0215304,0.0134147,-0.00187055,-0.00333076,0.0147574,-0.0228419,-0.0334004,-0.00653241,-0.00762038,3.01147e-05,0.009766,0.0382866,
0.00281534,0.0517962,-0.00441522,-0.00461242,0.0150457,0.0129073,-0.0227392,0.00117779,-0.000201362,-0.00931735,0.00730476,0.031823,
-0.00494966,0.0698934,-0.00760454,-0.00331828,0.0111493,0.0631437,-0.0191588,-0.00141401,0.0181653,-0.00836399,0.00613952,0.0147369,
-0.016574,0.0992568,-0.00660942,-0.00202388,0.00178033,0.0731372,-0.0168646,-0.00497154,0.0362117,-0.00709004,0.00111861,-0.0055671,
-0.014029,0.128941,-0.00464927,-0.00523643,-0.0120953,0.06317,-0.0297004,-0.00144633,0.0555477,0.00319693,-0.00131972,-0.012992,
0.0145973,0.129327,-0.0017241,-0.00651707,-0.00697592,0.0406469,-0.0199992,-0.00532581,0.0549252,0.00124873,-0.00729297,-0.0175181,
0.0284182,0.112327,0.00506356,-7.08584e-05,0.0058705,0.0178015,-0.0222091,-0.00598597,0.0662165,0.00412827,-0.00746543,-0.010453,
0.0184193,0.101121,0.00444574,0.0047659,0.014854,0.00171627,-0.0192674,-0.00632431,0.0643099,0.00185535,-0.00312545,-0.00692804,
0.00649261,0.0886263,0.0141293,0.00606156,0.0103163,-0.006643,-0.0217983,-0.0108481,0.0624051,-0.0036384,-0.00650741,-0.00372379,
0.00197441,0.0690471,0.012544,0.010255,-1.59772e-05,-0.015969,-0.0227195,-0.00796743,0.0579263,-0.0100994,-0.0102072,0.00237912,
0.00100136,0.0568709,0.0151431,0.00607815,-0.00551886,-0.0343103,-0.0249284,-0.0118478,0.0579561,-0.0217129,-0.0122938,0.00494182,
0.00196367,0.0353562,0.00776111,0.0141354,0.0102267,-0.0542626,-0.0181232,-0.00896765,0.0563772,-0.0246354,-0.00632893,0.005574,
3.21465e-05,0.0106195,0.00939259,0.00706157,-0.00235852,-0.0581191,-0.0264495,-0.0170338,0.0335508,-0.0339982,-0.014849,-0.0176164,
0.00937218,-0.0112227,0.00909142,0.00835846,-0.0030317,-0.0529626,-0.0228644,-0.00868121,0.0110467,-0.0388551,-0.00887989,-0.0478885,
0.00744776,-0.0279174,0.00653561,-0.000968576,-0.00628032,-0.0468417,-0.0224992,-0.010631,-0.0285204,-0.0385623,-0.00709469,-0.0678574,
0.0103559,-0.0552402,0.00558839,0.00676744,-0.00759725,-0.0394343,-0.0202028,-0.00582027,-0.0574639,-0.0308659,-0.00176734,-0.0730158,
-0.00154192,-0.0912599,-0.000511109,0.00484527,-0.0114897,-0.0304186,-0.0243459,-0.0122777,-0.0715989,-0.0215609,0.000340854,-0.0659392,
0.000407028,-0.128572,-0.00274859,0.00775226,-0.00604588,-0.0201162,-0.0114267,-0.0026382,-0.0728576,-0.00678374,-0.00173645,-0.0488811,
0.00815412,-0.139812,-0.00981657,0.00872756,-0.00124599,-0.0117466,-0.0178246,-0.00652038,-0.061884,0.00702695,0.000370732,-0.02828,
0.0104313,-0.108239,-0.0104472,0.00197616,-0.00127531,-0.00563137,-0.0174622,-0.00975872,-0.0476927,0.0102131,-0.00331833,-0.00896479,
0.00917006,-0.0599308,-0.0171962,0.00327314,0.00030499,-0.00370212,-0.0203199,-0.0110654,-0.0219134,0.0291741,-0.00990665,0.0109964,
0.0252966,-0.0161347,-0.0104252,-0.00283479,-0.000368409,-0.00273919,-0.0241438,-0.0130159,-0.0141649,0.0313941,-0.0097365,0.0126094,
0.0266165,-0.00228453,-0.0123483,-0.00540168,0.00249943,-0.00306436,-0.0273242,-0.00659574,-0.00513078,0.0281411,-0.00731556,0.0126155,
0.0153834,0.000936508,-0.0139511,-0.0115103,0.00697684,-0.00242383,-0.0314708,-0.00661417,-0.00350352,0.0268201,-0.00618568,0.0206731,
0.00833789,-0.00614957,-0.013946,-0.00248814,0.00791272,-0.00500266,-0.0369053,0.00270408,0.00617002,0.0251774,-0.00538153,0.0367826,
0.000972736,-0.021289,-0.011045,-0.00827582,-0.00145372,0.00594033,-0.0378326,0.00365229,0.00231965,0.0113013,-0.00297192,0.0606223,
-0.00349286,-0.0341796,-0.0110432,-0.00569358,-0.00244988,0.00851329,-0.0400475,0.000737757,0.0049057,0.00450833,-0.000245116,0.0818903,
-0.00602492,-0.0570548,-0.0136186,-0.00375584,-0.00312434,0.016238,-0.0364671,7.74835e-05,0.00748927,0.00994972,-0.00267459,0.081914,
-0.0195013,-0.0554668,-0.0132983,0.000112877,-0.00251131,0.00883222,-0.0277349,-0.00541115,0.00588503,-0.00199322,-0.00929498,0.0687421,
-0.0239618,-0.0458343,-0.00557485,-0.00117018,-0.0044741,0.0146271,-0.0161043,-0.00832339,0.00685367,0.00248347,-0.0139899,0.0610473,
-0.0297087,-0.0313764,-0.00236019,-0.00535147,-0.000642264,0.0117307,0.00100062,-0.0118785,-0.000872859,-0.00656081,-0.0161158,0.0556101,
-0.0306252,0.000140965,0.00793567,-0.00341664,-0.00196183,0.0191378,0.0136,-0.0141448,-0.00312921,-0.00626812,-0.0147075,0.0514644,
-0.0325064,0.0203873,0.00374267,-0.0117848,-0.00489147,0.0178539,0.0181527,-0.0209171,-0.0230953,-0.0085503,-0.0123407,0.0534394,
-0.0350305,0.023568,0.00147991,-0.00791994,-0.00814342,0.0127083,0.0304344,-0.0241466,-0.0334061,-0.00632458,-0.0122355,0.0547739,
-0.0311148,0.0080738,0.00565462,-0.00727539,-0.00785438,0.0075643,0.0375676,-0.0247991,-0.0514467,-0.00538585,-0.0127825,0.0628724,
-0.0362124,0.00287971,-0.000796083,-0.00663172,-0.00112689,0.00338793,0.0495328,-0.0112844,-0.0604759,-0.0128168,-0.0120503,0.0600277,
-0.03648,-0.0019941,-0.00563835,-0.00405726,-0.00148251,-0.00658154,0.0560281,-0.000343358,-0.0537331,-0.00736919,-0.0113272,0.0365811,
-0.0370685,-0.00912284,-0.00211137,-0.00599087,-0.00473598,-0.0126858,0.0593073,0.00158543,-0.0337937,-0.00159868,-0.0157647,-0.00167273,
-0.030895,-0.0230134,-0.00244888,-0.00502786,5.87347e-05,-0.0290901,0.0600144,0.00609209,-0.0157889,0.00674839,-0.0115195,-0.0148136,
-0.0260081,-0.0224172,-0.00278753,-0.00567542,-0.00351741,-0.0319708,0.0649103,-2.27835e-05,-0.00776702,0.0205696,-0.0188743,-0.0504893,
-0.0207979,-0.00829971,-0.00312728,0.00333446,-0.0103133,-0.0239032,0.063049,0.00352337,0.0140958,0.0224801,-0.0133619,-0.0687796,
-0.0213811,0.026744,-0.00636554,-0.00246581,-0.0135682,-0.00971627,0.0483135,0.00353113,0.00730327,0.0144117,-0.00914802,-0.0899672,
-0.0123042,0.0553494,-0.00670731,-0.00343774,-0.00555538,0.027975,0.0406642,0.00869315,0.00662542,0.00409089,-0.00945241,-0.0892628,
-0.00515705,0.0636732,-0.00801582,-0.00312267,-0.000440325,0.12394,0.0401009,0.0190096,0.00176022,0.00471744,-0.00751457,-0.066023,
0.0110067,0.0542912,-0.00385216,-0.00763747,-0.00723735,0.14876,0.0353555,0.033193,-0.00761411,-0.00656656,-0.00816391,-0.0402082,
0.0188024,0.0445887,-0.00805977,-0.00732384,-0.0082396,0.130763,0.0367299,0.0402973,-0.00861975,0.0069403,-0.00528379,-0.0230866,
0.0311079,0.0368194,-0.00454146,-0.00507924,-0.00537866,0.100214,0.0297364,0.0409668,-0.00801731,0.00789276,-0.00370362,-0.00210255,
0.0379432,0.0287298,-0.00456511,-0.00122556,0.00359909,0.0693458,0.0295061,0.0461474,-0.000333615,0.0133538,-0.00567724,0.00922236,
0.0405963,0.037383,-0.00297956,-0.00864043,0.00806966,0.0465281,0.0221951,0.0429615,-0.0132555,0.00626035,-0.00669774,0.0160391,
0.0461501,0.0392773,-0.00718938,0.00390458,0.00964279,0.0272537,0.0267975,0.0394578,-0.00654006,0.00238771,-0.00612147,0.0115869,
0.0529948,0.0286178,-0.0036729,-0.00125771,0.00606496,-0.00103369,0.0136945,0.0327388,-0.00529857,0.00302357,-0.00845586,0.00906526,
0.042458,0.01957,0.00274086,0.00227203,0.0192283,-0.0389783,0.0108946,0.0314967,0.00238102,-0.000524504,-0.00694037,0.000747473,
0.0316026,0.0366014,-0.00211345,0.00258197,0.0204799,-0.0778883,0.00873901,0.0238197,0.0113478,0.00268949,-0.000609409,-0.0120788,
0.0178529,0.0471958,0.00365634,0.00417937,0.0169026,-0.116476,0.0172076,0.0187221,0.0206362,0.00365114,0.0005566,-0.0226528,
0.0202036,0.0452364,0.00556295,0.00577651,-0.000196118,-0.10967,0.00700321,0.0149159,0.0231637,0.00912123,0.00299627,-0.0242139,
0.018694,0.0294351,0.0068259,-0.000675112,-0.0143971,-0.0713147,0.0128951,0.00982536,0.0153889,0.0030026,0.00477774,-0.0235229,
0.0123584,0.0281228,0.0142061,0.00414106,-0.01733,-0.0355352,0.0155663,0.00988923,0.0221017,0.00622147,0.00590076,-0.0276626,
0.00377206,0.0235924,0.0093529,-0.0010231,-0.0151116,-0.0164973,0.0214553,0.00931235,0.0136835,0.00364652,0.00217987,-0.042428,
0.00484674,0.0068294,0.0090074,0.0018612,-0.0116053,-0.0116256,0.016074,0.00745063,0.00301206,0.00397013,-0.00252186,-0.0446391,
0.0110751,-0.0131521,0.00157976,0.00249185,-0.000694049,-0.016091,0.0135875,0.00848911,-0.0108783,0.00461672,0.000487755,-0.0413788,
0.00829158,-0.016714,0.00123548,-0.0036383,0.00377858,-0.021201,0.000473707,0.0272369,-0.00995886,-0.00214037,-0.00488861,-0.0278177,
-0.000284596,-0.033475,-0.00715664,0.00375314,0.0105051,-0.0224484,0.000555766,0.034719,-0.0058193,-0.00213574,-0.00545158,-0.00170212,
-0.0143316,-0.0508796,-0.000416711,0.000198603,0.00757367,-0.0236964,-0.00483948,0.0270719,0.00926706,-0.00470577,-0.0102157,0.0218368,
0.000598117,-0.0647429,-0.00333421,0.00211717,0.0143009,-0.0214038,-0.00798594,0.0200704,0.00696942,-0.00115808,-0.0149961,0.0321751,
7.64864e-05,-0.079894,0.000509975,-0.000149375,0.00911655,-0.0129947,-0.00952805,0.0024462,0.00757025,-0.00469233,-0.0168954,0.0280251,
-0.0175064,-0.07927,0.00371125,0.00176948,0.01842,-0.00458614,-0.00721271,0.00993464,0.0104258,0.00014463,-0.0191332,0.0216208,
-0.0315463,-0.0619053,0.00401609,-0.00275031,0.0125925,0.00124657,-0.0139181,0.00164871,-0.0105413,-0.00210044,-0.0175245,0.0126404,
-0.0359266,-0.0500136,0.0110828,0.00432003,0.00966292,0.00868877,-0.0106502,-0.00438317,-0.0173416,-0.00305711,-0.0168985,0.011064,
-0.0403056,-0.0387657,0.0049511,0.00237625,0.00222641,0.0148431,-0.0199454,-0.00912718,-0.0212431,-0.00530094,-0.0150019,0.00691161,
-0.0536977,-0.00498165,0.00622527,0.00558382,0.00927757,0.0206755,-0.0183025,-0.00904227,-0.0196701,-0.00883197,-0.0156981,0.00790977,
-0.0567864,0.00723277,-0.00280144,0.00750394,0.00763652,0.0290834,-0.02697,-0.0134651,-0.00875916,0.000193269,-0.0199529,-0.000750774,
-0.0489278,0.00946769,-0.00120274,-0.000233872,-0.00108709,0.0345941,-0.0350023,-0.016601,0.000221856,-0.00333672,-0.0216497,-0.00104125,
-0.0343071,-0.0101885,-0.00346599,0.00200886,-0.00240592,0.0603873,-0.0433658,-0.015231,0.0104925,-0.000105449,-0.0159594,0.0012434,
-0.0132461,-0.0366044,-0.00669366,0.00103254,-0.00082722,0.0649326,-0.0420805,-0.0199793,0.00692176,-0.00266867,-0.0173694,-0.00452086,
-0.00570509,-0.0572239,-0.00380297,0.00552961,0.0017173,0.0588539,-0.0475659,-0.0253732,0.0149431,0.00217321,-0.0249139,-0.00320275,
0.00763265,-0.0694712,-0.00477408,-0.00124091,0.0023301,0.0485899,-0.0524176,-0.0288374,0.0110549,0.00283027,-0.0212081,-0.012831,
0.0216162,-0.0537076,-0.00123643,0.00325693,0.00712802,0.026736,-0.0537383,-0.0213579,0.0119983,0.00187802,-0.0191297,-0.00668433,
0.0352799,-0.00445971,-0.00252628,0.00904294,0.00677467,0.0106767,-0.0489528,-0.0135588,0.0158418,0.00833081,-0.0199665,0.00332538,
0.0357463,0.0473665,0.00133665,0.011288,0.00964049,-0.00634906,-0.0480414,0.00132039,0.0180782,-0.00131315,-0.020177,0.0120471,
0.0400783,0.0927571,-0.000593627,0.00902624,0.00671101,-0.00921014,-0.0513261,-0.00215392,0.0196735,0.0057842,-0.021049,0.0181932,
0.0437689,0.102738,0.00423871,0.011594,0.000239756,-0.0223744,-0.0546218,-0.00434342,0.0100037,0.00225774,-0.0261237,0.0227295,
0.041667,0.108537,0.00714129,0.00804521,0.00857732,-0.0426227,-0.0614698,-0.0110432,0.0183656,0.00517037,-0.0205918,0.0201829,
0.0382798,0.126574,0.00714834,0.0064284,0.0062902,-0.0638383,-0.0628556,-0.0158147,0.0164282,0.00582961,-0.021194,0.0160265,
0.0239491,0.104372,0.0129524,0.00867516,-0.00372423,-0.0782947,-0.0623206,-0.018658,0.0267275,0.00874261,-0.0253548,0.00929447,
0.018957,0.0651121,0.0132854,0.00641497,-0.0124517,-0.0769778,-0.0695228,-0.0272997,0.0241522,0.00586077,-0.0240595,0.0131864,
0.00913807,0.0474259,0.0194155,0.00898407,-0.00926821,-0.0611753,-0.0760915,-0.0269308,0.0228675,0.00555451,-0.0250347,0.0280241,
0.00479431,0.044553,0.0120262,0.00962162,-0.0128465,-0.0386137,-0.08428,-0.0346143,0.0196541,9.71759e-05,-0.0192657,0.0299839,
-0.000191314,0.0490884,0.0207361,0.00478618,-0.015782,-0.0121905,-0.0911904,-0.0352189,0.013868,-0.00536024,-0.0241371,0.0219631,
0.0163951,0.0330228,0.0207556,0.00284818,-0.00809451,-0.0112023,-0.0923151,-0.0190863,0.00132389,-0.00115955,-0.0190445,0.00106414,
0.0278321,0.0333794,0.0223869,0.000266147,-0.0103884,-0.00635216,-0.0892633,-0.00682099,-0.00123738,-0.000500426,-0.017831,-0.0240207,
0.0205982,0.0363141,0.0217667,0.00347884,0.000516002,-0.000859378,-0.0862196,-0.00325197,-0.0031522,0.000480358,-0.0147014,-0.038804,
0.00950232,0.0704796,0.0192168,-0.0119814,0.000473141,-0.00180651,-0.0793199,-0.0119206,-0.0153667,0.000816917,-0.0183479,-0.0516566,
0.0122512,0.116559,0.020854,-0.011023,0.00107285,-0.00854952,-0.0634124,-0.0157639,-0.00633062,-0.003998,-0.0187898,-0.0513104,
0.00791839,0.149761,0.0138005,-0.0152162,-0.00702124,-0.00499111,-0.0497641,-0.0215427,0.0104343,-0.00495008,-0.015705,-0.0396972,
0.0029425,0.148195,0.0141533,-0.0174783,-0.00481456,-0.00111132,-0.0332232,-0.0192766,0.0194749,-0.0129854,-0.0107027,-0.0210022,
-0.00364251,0.10864,0.00678098,-0.0129802,-0.00808232,0.00502168,-0.0208712,-0.023131,0.0220788,-0.0123289,-0.0105435,-0.0129322,
0.00200663,0.0623227,0.00649273,-0.0165313,-0.014249,0.00664729,-0.00691229,-0.0189405,0.0259725,-0.0203654,-0.00910988,-0.0129115,
-0.000714597,0.0333885,0.004274,-0.00237633,-0.00657364,0.0111704,0.00704491,-0.0079926,0.0202098,-0.0200321,-0.0064016,-0.0148232,
0.0097637,-0.0338597,0.00141238,-0.0072166,-0.00791411,0.00796696,0.0164943,-0.00960373,0.00704417,-0.0264603,-0.00628153,-0.0141599,
0.0215294,-0.104009,0.00209295,-0.000145718,0.00136803,0.0137782,0.0320609,-0.00381335,0.011587,-0.0251625,-0.00681758,-0.00963373,
0.0522892,-0.17352,-0.00205495,-0.00788487,-0.00448255,0.0118634,0.0392584,-0.00478675,0.0132337,-0.0228994,-0.00607771,-0.00768347,
0.0624438,-0.221145,-8.54874e-05,0.000794302,-0.00325186,0.0138124,0.0499997,0.00518303,0.0245399,-0.0183834,-0.00373953,-0.00863088,
0.0433006,-0.243987,-0.0122812,-0.00308296,-0.0113589,0.0215571,0.0472227,-0.000303082,0.0236134,-0.0199847,-0.00109039,0.00136769,
0.0196486,-0.233354,-0.0132088,-0.00341956,-0.00433611,0.021898,0.0450939,-0.000962591,0.0204341,-0.0135379,0.00669927,0.00653725,
0.00629685,-0.20953,-0.0134925,-0.00633238,-0.0140557,0.0273909,0.0403947,-0.015468,0.0227283,-8.55458e-06,-0.00065246,0.00591213,
-0.00319392,-0.19183,-0.0118448,-0.00602646,-0.0183036,0.0286996,0.0337697,-0.0341608,0.0195498,0.00772565,-0.000287267,0.00754102,
-0.0171946,-0.177357,-0.00955348,-0.00217983,-0.0138604,0.031619,0.0265076,-0.0496362,0.00445946,0.0209328,0.00264421,0.0156093,
-0.0318425,-0.162248,-0.0127357,-0.00316297,-0.00877451,0.0284226,0.0298771,-0.0606062,-0.0099873,0.023838,0.00331326,0.0339805,
-0.04585,-0.154228,-0.0104454,-0.00382476,-0.0149578,0.0307002,0.0287475,-0.0696462,0.00486206,0.0367236,-0.00214299,0.0385089,
-0.0559982,-0.112733,-0.0139508,-0.00609685,-0.0172789,0.0294375,0.0363193,-0.0622683,0.00683283,0.0370537,0.00108523,0.0343459,
-0.0561705,-0.0606194,-0.0103742,-0.00257453,-0.0112304,0.0259221,0.0496955,-0.0413697,0.00236353,0.0293356,0.00301812,0.0243888,
-0.0560255,-0.00400338,-0.0122714,0.00159117,-0.0109778,0.0275586,0.0621161,-0.0198276,-0.0165947,0.0222616,0.00558777,0.0192619,
-0.0549196,0.040053,-0.0077308,-0.00293603,-0.0129795,0.0195376,0.0648892,0.00107069,-0.0426375,0.0151881,0.00396547,0.00479959,
-0.051565,0.0911891,-0.00608861,-0.00263453,-0.00693324,0.0108733,0.0718588,0.0161745,-0.0583802,0.0168072,0.00620018,0.0019282,
-0.04564,0.121075,-0.00444746,-0.00523089,-0.00281911,-0.000366195,0.0724012,0.0306356,-0.0734815,0.00683662,0.00327794,0.0077502,
-0.0458372,0.11136,-0.00473903,-0.00235457,0.0064458,-0.00194718,0.082614,0.0518589,-0.0602544,0.00910001,0.00839878,0.00133931,
-0.0489371,0.0890897,-0.0121145,-0.00462961,0.00412066,0.00130101,0.0873662,0.0663234,-0.0463862,0.00428074,0.00353435,-0.0240653,
-0.0423839,0.077443,-0.00468169,0.00275338,0.00598078,-0.00188978,0.092453,0.0872292,-0.0325207,0.00300282,0.000918838,-0.0278989,
-0.0445284,0.0715917,-0.0107717,-0.00209761,0.00429969,-0.00636864,0.0907918,0.0988013,-0.0260627,-0.00374822,0.00570371,-0.0191759,
-0.0502193,0.0638096,-0.010746,0.000134,0.0116333,-0.0102041,0.0868899,0.104581,-0.0234709,-0.00631422,0.00662139,-0.016891,
-0.0536615,0.0521654,-0.0139409,0.00687273,0.00866519,-0.0172597,0.0868641,0.0904043,-0.019594,-0.0050172,0.00560391,-0.0136393,
-0.0461624,0.0653122,-0.0049032,0.00234348,0.00215631,-0.0178772,0.0762269,0.0771961,-0.00606165,-0.00983745,0.00748078,-0.00233815,
-0.042853,0.0688025,0.000913858,0.00199951,0.00337472,-0.00819358,0.0639925,0.064313,0.00296087,-0.00596573,0.0122524,0.00799815,
-0.0131486,0.0703631,0.00447615,-0.0015638,8.67694e-05,-0.00462794,0.0578873,0.04596,-0.000574935,-0.01626,0.0109047,0.0244524,
-0.00244253,0.0683843,0.00320814,0.00324352,-0.000624716,0.00119007,0.0440674,0.0276098,-0.00894239,-0.0149649,0.00987689,0.0351128,
0.00214308,0.0515982,-0.00289014,-0.0096558,-0.00906176,-0.0010418,0.0341224,0.0214961,-0.0211756,-0.0152802,0.00208662,0.024848,
0.000930584,0.0373896,0.00260036,-1.89492e-05,0.000853048,0.000266236,0.0296614,0.0163507,-0.0111971,-0.0143084,0.00137772,0.0235988,
-0.00833328,0.0106272,-0.00156853,-0.00261562,-0.000498823,-0.00196866,0.0200601,0.0124953,0.00296438,-0.0162347,0.00227751,0.0252481,
-0.0137363,-0.00261175,-0.00412882,0.000261053,0.00297985,-0.00871243,0.015298,0.00831985,0.021309,-0.0210593,0.0109032,0.0198157,
-0.00916121,-0.016171,-0.00411467,0.00185034,-0.0015885,-0.0177116,0.0115114,0.0047899,0.0383638,-0.0123629,0.00729474,0.00504803,
0.00764595,-0.0271531,-0.000882171,0.00279619,-0.00196995,-0.0257468,0.00741198,-0.000992308,0.0486559,-0.00946223,0.000466798,-0.0058555,
0.0234859,-0.0378118,-0.00312375,0.00181087,0.00247951,-0.0302427,0.00815027,0.000953126,0.0544389,0.000842522,0.00394127,-0.0106413,
0.0357835,-0.0536201,-0.0108394,0.00372358,0.00918446,-0.0163899,0.00889658,-0.00289566,0.0396157,-0.000121268,0.00677242,0.00389004,
0.0371344,-0.0507545,0.00333603,0.00467105,0.0033357,0.00808492,0.00610901,-0.00416848,0.0357367,0.00406549,0.00252172,0.0358069,
0.038807,-0.0459559,-0.000196339,-0.00339522,0.00682539,0.000363411,0.00268445,-0.0105922,0.00352473,0.00632011,0.00342328,0.0670804,
0.0327528,-0.0279562,0.00270918,0.00302658,0.0106393,-0.00607247,0.0089245,-0.0137967,-0.0148458,0.0127595,0.000784942,0.0655161,
0.0321718,-0.0212231,0.00368213,0.00236638,0.0183188,-0.00896914,0.0051901,-0.0186114,-0.0380477,0.0105062,-0.00185162,0.0674934,
0.0209672,0.00386243,0.00658584,9.72428e-05,0.00925976,-0.00768274,-0.00497795,-0.0231048,-0.0474084,0.00471104,-0.000944767,0.0549833,
0.0236066,0.0244425,0.00433762,0.00169221,0.00149101,-0.0102618,-0.0138536,-0.0250236,-0.0474351,0.00567635,0.00479358,0.041185,
0.0220615,0.064019,0.0104591,0.00135637,-0.00241184,-0.0102676,-0.0182181,-0.0333825,-0.0352305,0.00277803,0.00989069,0.0402636,
0.0205172,0.101344,0.00659945,0.0113236,0.00141455,-0.00930969,-0.0283741,-0.0304747,-0.0188429,0.0014891,0.00887384,0.0444922,
0.00995954,0.112593,0.00273903,0.00680426,0.00846308,-0.00449067,-0.0269372,-0.0430218,-0.0195207,0.0059948,0.00496273,0.0239297,
0.0203292,0.113221,0.0082141,0.0113003,0.017446,0.00676506,-0.025498,-0.0391515,-0.0105424,0.00792465,0.00427453,0.000467536,
0.0200758,0.107089,0.00177648,0.00678288,0.0190272,0.0141554,-0.0311396,-0.0378586,-0.0112246,0.00953223,0.0103509,-0.0197778,
0.0204676,0.0755261,0.00177687,0.010315,0.00580183,0.00190509,-0.0229363,-0.0349578,-0.0102991,0.00244705,0.0141777,-0.0390603,
0.0195729,0.0407446,-0.000799128,0.0103067,0.00352541,-0.0129228,-0.0231025,-0.0356003,-0.0148486,0.00147842,0.0106041,-0.0699364,
0.0412153,0.00596381,0.00113119,-2.75441e-06,0.00833464,-0.0226017,-0.0216585,-0.0307717,-0.00974159,-0.00464165,0.0118641,-0.0872949,
0.0673662,-0.0397627,-0.000802669,0.000956686,0.0144345,-0.0187611,-0.0198923,-0.0188622,0.00470002,-0.00303551,0.00829974,-0.0859852,
0.0687288,-0.092894,0.00112587,-0.0022682,0.0105572,-0.017176,-0.0174825,-0.0156469,0.0117354,-0.0085125,0.0118231,-0.068905,
0.0510979,-0.153431,-0.000809799,0.00191248,0.0127996,-0.0159149,-0.0182927,-0.00889199,0.0126525,-0.00594136,0.0108444,-0.0511859,
0.0363654,-0.194329,-0.00532194,-0.00742751,0.00635256,-0.0101485,-0.0223233,-0.0130847,-0.0031726,-0.00691201,0.00954915,-0.0756463,
0.0222775,-0.198206,0.000145188,-0.00131343,-0.00266719,-0.0043838,-0.0241015,-0.00729864,-0.012882,0.00145322,0.0137325,-0.0975364,
0.00851212,-0.16828,-0.00372496,-0.0029251,-0.00266973,0.00137919,-0.0291006,-0.0079528,-0.0151877,0.00370112,0.0121266,-0.0901349,
-0.0107261,-0.117107,-0.00534248,0.00254679,0.00280354,0.0010237,-0.0189703,0.0020159,-0.0129871,0.00111947,0.008273,-0.0705049,
-0.026745,-0.0804216,-0.0127559,0.000292903,-0.00878336,0.00517392,-0.0220417,0.0087641,-0.00853358,-0.00468204,0.00796684,-0.0489482,
-0.037935,-0.0347221,-0.0069707,-0.000672396,-0.00781178,0.00224005,-0.0196424,0.0177649,-0.00343677,-0.00243542,0.0134618,-0.0389862,
-0.0504134,0.0125874,-0.0140641,0.000616706,-0.000720605,-0.00133897,-0.025616,0.0219358,0.00230355,-0.00179893,0.00994879,-0.0174388,
-0.0516246,0.0450884,-0.0134319,0.00126272,0.0083049,-0.016831,-0.0206464,0.0199891,0.00160482,-0.00534811,0.00998356,0.00378233,
-0.0505831,0.0643912,-0.0111908,0.00126564,0.0141136,-0.0152612,-0.0253378,0.0202954,0.00831072,0.00365804,0.00938104,-0.00236551,
-0.0405284,0.0827301,-0.0137798,-0.00484756,0.0134862,-0.0194873,-0.0284225,0.0186694,0.00632431,-0.00214554,0.00781937,-0.024936,
-0.0369135,0.0885155,-0.00671125,0.00384932,0.0115735,-0.0175973,-0.0324762,0.0154333,0.0133526,0.00235264,0.00497671,-0.0397832,
-0.0297585,0.0794944,-0.00640426,0.00127899,0.0180339,-0.0176397,-0.0336357,0.0118748,0.0139425,-0.00280783,0.0105114,-0.0485164,
-0.0261459,0.0701542,-0.00577599,-0.000324778,0.0151604,-0.0180044,-0.0383397,0.00219892,0.0135671,-0.00539312,0.00929228,-0.0350381,
-0.0128761,0.0540565,-0.00611413,0.000647714,0.0190501,-0.0286717,-0.0382179,0.0021809,0.0070756,-0.00411547,0.0116215,-0.00578683,
-0.0115193,0.0582444,0.00127384,-0.00095462,0.0161813,-0.0348319,-0.0390652,-0.0091055,0.0018727,-0.000584562,0.0100946,0.0257164,
-0.0140267,0.0627577,0.00544199,0.00195093,0.0184657,-0.0358409,-0.0370183,-0.00590491,0.011802,0.00745322,0.0105064,0.0533551,
-0.0187885,0.0650208,0.00091738,0.0013158,0.0194644,-0.0326643,-0.0285357,-0.0142946,0.00338176,0.00808603,0.00480851,0.0610327,
-0.018722,0.0605265,0.00315333,0.00132523,0.0172455,-0.0249798,-0.0200561,-0.00851925,0.00945003,0.000670001,0.00233725,0.0722512,
-0.0186561,0.0541038,0.00249166,-0.002528,0.0153503,-0.0140749,-0.0209158,-0.0140122,0.00167606,-0.00223911,0.00759985,0.0767089,
-0.0205223,0.0454307,0.0047274,0.00392154,-0.0126206,0.0106749,-0.0105102,-0.0175738,0.00259588,-0.0051485,0.0144794,0.0631381,
-0.0194914,0.0299997,-0.00205121,0.00135733,-0.0219176,0.031885,-0.00944341,-0.0230673,0.00383907,-0.0016193,0.0126739,0.0428069,
-0.00815844,0.00620093,0.00630155,-0.000884341,-0.0102872,0.0437608,0.000635386,-0.0195465,0.0083032,-0.0100022,0.0134511,0.0195787,
-0.00262042,-0.00858108,-0.00144261,0.00073787,0.000378364,0.0514538,0.0087804,-0.020533,0.00665202,0.00125311,0.0132698,0.00279006,
-0.00158934,-0.0217513,0.00530086,-0.00440014,-0.00827177,0.0568958,0.0111285,-0.0211976,0.00983163,0.000274426,0.0047253,0.00403087,
-0.00120168,-0.0455437,0.0078594,0.00108647,-0.0159554,0.0481753,0.0144407,-0.015745,0.0123691,0.00637828,0.00713403,-0.00052248,
0.00369384,-0.0496961,0.00397948,-0.00855767,-0.0178436,0.0336628,0.0142101,-0.0119019,0.0116889,0.000892049,0.00278917,-0.0044311,
0.00504888,-0.0477302,0.00975827,-0.00532362,-0.0107169,0.0619718,0.0223485,-0.00387296,0.019381,0.00377616,0.00295863,-0.00286579,
0.00125393,-0.0361048,0.00748901,-0.00563043,-0.014858,0.0738651,0.0250127,0.00190303,0.0151631,-0.00428588,0.00281326,0.00191992,
-0.00865662,-0.00741549,0.00843972,0.00275569,-0.0173892,0.0641916,0.0312172,0.00800181,0.00418627,-0.0100945,0.00428463,0.00445308,
-0.0134146,0.0193432,0.00520576,0.0027718,-0.0154132,0.050658,0.0319477,0.0134577,-2.7915e-05,-0.00721069,0.00544106,0.0108507,
-0.0101223,0.0303276,0.00744544,0.0034323,-0.00764216,0.0200647,0.0323554,0.0198807,0.00348636,-0.00722448,0.00596053,0.0114544,
0.000254629,0.0216743,0.00807605,0.0073127,0.00238239,0.000742485,0.0243918,0.0224417,0.0111877,0.00370771,0.00197968,0.0159228,
0.00290713,0.027831,0.00516597,0.00217921,-0.0156021,-0.00698695,0.0173932,0.0185654,0.00987653,0.00433776,0.00219088,0.016851,
0.00684979,0.0362418,0.0041882,0.000587543,-0.0123386,0.0132953,0.0139351,0.0227393,0.0217668,0.00722142,0.00434045,0.0110197,
0.0249605,0.0652571,0.00836219,-0.00422309,-0.00714372,-0.00183347,0.0143396,0.0175786,0.0153081,-0.000840874,0.000701719,0.0106627,
0.0318061,0.0981359,0.00963939,0.000303037,-0.00323679,-0.0169598,0.0150651,0.0198243,0.0243043,0.00139906,0.00415229,0.00837541,
0.0286746,0.113308,0.00544424,-0.0019312,0.00839648,-0.0282207,0.00516562,0.0143454,0.0201026,-0.0079508,0.00825324,0.00190413,
0.0255462,0.11206,0.00962025,0.001308,0.0123029,-0.0388355,0.00878677,0.0165949,0.0139708,-0.0108617,0.00141458,-0.00488783,
0.0375524,0.0815142,0.00220698,0.00165011,0.0171748,-0.0385024,0.00146087,0.0114418,-0.00696892,-0.0121627,0.0110013,0.000877197,
0.0370064,0.0213482,0.00670618,0.00617786,0.0123881,-0.00404149,0.000250771,0.0107978,-0.0159954,-0.0121757,0.016409,-0.00076121,
0.0358201,-0.03882,0.00959624,0.00813044,0.0162934,0.0201191,0.000971149,0.014341,-0.00795781,-0.00220819,0.0144181,0.00243072,
0.0301301,-0.0970595,0.00797965,0.00235676,0.0182666,0.0433155,-0.00152914,0.00533047,-0.00120684,0.00550603,0.0130771,0.000794722,
0.0405408,-0.147254,0.00893909,-0.00245076,0.0202393,0.0407583,-0.00757212,0.00952149,0.00876457,0.00935735,0.0136737,0.000769603,
0.0451601,-0.165258,0.00700148,-0.00790187,0.0199577,0.0182423,-0.0145823,0.00598781,0.00553728,0.0119214,0.0123443,-0.00601515,
0.0497829,-0.151395,0.00860559,0.00113468,0.0254703,-0.00620395,-0.00453107,0.00664126,-0.00831328,0.013842,0.013918,-0.0127988,
0.0418534,-0.11661,0.0063467,0.0011571,0.00941188,-0.00746911,-0.0109004,-0.00268366,-0.0179779,0.0173729,0.0125996,-0.021191,
0.0458389,-0.104045,0.00795133,0.000535864,-0.0217789,-0.00358208,-0.00664717,0.000227016,-0.0241005,0.00545124,0.0138619,-0.00929969,
0.0343743,-0.104683,0.000219775,0.00313425,-0.0346202,-0.0135376,-0.00786859,0.00700274,-0.0215301,0.00447617,0.00933435,0.00388048,
0.0287075,-0.10919,0.00118069,0.000903692,-0.0271805,-0.041843,-0.00844778,0.00347802,-0.0192812,-0.0019713,0.00609933,0.00772549,
0.00887777,-0.10018,-0.00236564,0.00350242,-0.00525494,-0.0640308,-0.0041995,0.00832544,-0.0115588,0.0034937,0.0051225,-0.000662124,
0.0102985,-0.0966467,-0.00140493,-0.00581058,-0.00908632,-0.0820328,-0.00413817,0.00319425,-0.0080213,-5.50483e-05,-0.00196687,-0.000678048,
0.0094675,-0.0902201,-0.00398583,-0.00385551,-0.00583666,-0.0626889,0.000428657,0.00321565,0.00163356,0.000582071,-0.00873015,0.0163702,
-5.42708e-05,-0.0570757,-0.0159034,-0.00351008,-0.00741789,-0.0323984,0.0014524,0.00195074,-0.0106032,-6.79505e-05,-0.00937262,0.0195761,
-0.025028,-0.0197487,-0.0149437,0.00230843,0.000335367,-0.00371684,0.0076255,0.00455052,-0.0122155,0.00024848,-0.00904557,0.0231052,
-0.0364791,0.0104933,-0.0242866,-0.0047507,-0.00189348,0.00822454,0.00285082,0.000712781,-0.0109299,0.00249719,-0.0119345,0.018265,
-0.0282911,0.0561871,-0.0242937,-0.00730263,-0.00412428,0.00374784,0.00483517,0.00138347,-0.0106096,-0.00298008,-0.00516179,0.00569933,
-0.0217123,0.0758028,-0.0226917,-0.000518237,-0.0166593,0.0127938,0.00456415,-0.000520223,-0.00739144,0.00281125,-0.00321518,-0.00235803,
-0.0199626,0.0870477,-0.0181928,0.00175896,-0.0227575,0.0266702,-0.00085974,0.000152707,1.25201e-05,-0.00234283,-0.0054509,-0.00107802,
-0.0217542,0.0970052,-0.010797,0.00274839,-0.0127607,0.0350748,-0.00113439,-0.00432443,0.000334325,0.000874215,-0.00478642,0.00599794,
-0.0164634,0.10471,-0.0088748,-0.00109135,0.00302888,0.087265,-0.000123136,-0.00300569,-0.000952965,0.00151635,-0.00637299,0.00502626,
-0.016646,0.0992159,-0.00308978,0.00247355,0.0133433,0.126257,0.00442759,0.000567503,0.000979828,0.00248105,-0.0073133,-0.00173952,
-0.0132879,0.0744067,-0.000846588,0.000243454,0.0114217,0.101506,-3.79748e-05,0.000600111,0.000981683,0.000226953,-0.00535393,-0.00560704,
-0.0141157,0.0512088,0.00107424,0.0018766,0.00595659,0.0806196,-0.00257384,-0.00870289,0.00195013,0.00312455,-0.00693386,-0.0146249,
-0.00303254,0.0367049,-0.00215636,0.00222191,-0.00369601,0.0523295,-0.00350197,-0.00899088,0.00774851,0.000871688,-0.00561442,-0.00786696,
-0.00128671,0.0411971,0.00330516,-0.000652291,-0.0149606,0.0285473,0.00200672,-0.00638082,0.00227978,-0.00170251,-0.00622489,-0.0017523,
-0.0034053,0.04054,0.00297147,0.00452196,-0.0188228,0.00927269,0.00365007,0.00105889,0.00389466,0.00151885,-0.00136073,0.00146545,
0.00703062,0.042138,0.00682281,-0.00189383,-0.0275165,-0.010002,0.000784157,-0.00502249,-0.00543555,0.00119945,-0.00615336,0.000820405,
0.0203627,0.0170163,0.00874233,-0.00380256,-0.0181837,-0.0250918,0.000813626,0.00306198,0.00680532,0.00249033,-0.00547163,0.00661468,
0.0169523,-0.00617232,0.00390095,-0.00925282,-0.0127166,-0.0498408,-0.0027004,0.0121127,0.00327203,0.00506956,-0.00736423,-0.000468304,
0.0135402,-0.0151943,0.00742997,0.000106089,-0.010793,-0.0726593,-0.00331911,0.0266367,0.00811027,0.00764935,-0.0102216,0.00564872,
-0.004039,-0.0219615,-0.000952924,-0.000193446,-0.00790592,-0.0893624,-0.00554973,0.0263516,0.00618878,0.00668833,-0.00985851,0.00629306,
0.0041352,-0.027118,0.00257599,-0.00113705,-0.00598676,-0.0770926,-0.00488509,0.0286422,0.0110292,0.000576749,-0.00724099,0.0153082,
0.008444,-0.0477268,-0.00258754,0.000816623,-0.00245999,-0.0387474,-3.7457e-05,0.0215965,0.0113634,0.00219227,-0.00494464,0.0188505,
0.00148257,-0.0406478,0.00416079,0.000516507,0.000742836,-0.0168233,-0.00324064,0.013585,0.0152402,-0.00359641,-0.00683285,0.0194954,
-0.0173932,-0.0287388,0.00318253,0.000860068,0.00136819,-0.00294999,-0.00902163,0.00331956,0.0165425,0.00381496,-0.000671906,0.011448,
-0.0240377,-0.0126438,0.00317015,-8.43504e-05,0.00231363,-0.0032443,-0.00257113,-0.00919985,0.0188116,0.000924583,-0.00706618,0.00790767,
-0.0287534,0.00795926,0.00347976,0.00508791,0.00132564,-0.00450668,-0.00191788,-0.00948605,0.0194721,0.0028637,-0.00863088,0.00823046,
-0.0334719,0.00956866,-0.004903,0.000601678,0.00516507,-0.00577135,-0.00158888,-0.0110608,0.0162703,0.00383732,-0.0101952,0.0053335,
-0.0204867,-0.00234256,-0.00233964,0.00673929,0.0099687,-0.00703834,-0.00190607,-0.0126364,0.00888405,0.006099,-0.00660814,0.00919686,
-0.00943619,-0.0123211,-0.00621504,-0.00418627,0.0012492,-0.00444439,-0.0112399,-0.0171106,0.00568389,0.00739511,-0.00945966,0.00597689,
-0.00901294,-0.00523578,-0.00719284,-0.00159054,-0.00264268,-0.0041064,-0.0109179,-0.0193323,-0.0110371,0.00160869,-0.00555017,-0.000463267,
-0.0108465,-0.0136025,-0.00140973,0.000361018,0.000224773,0.0039558,-0.016393,-0.0193018,-0.0132702,0.00515874,-0.00453797,-0.00175327,
-0.0152588,-0.0100563,-0.00560666,0.00199033,-0.00302606,0.00461092,-0.0170413,-0.0208824,-0.0142149,-0.00288102,-0.00481339,0.00210672,
0.0012518,0.00314936,0.000176801,0.00297545,-0.00402462,0.00816109,-0.021877,-0.0202109,-0.00324736,0.00195693,-0.00476675,-0.000795314,
0.0232321,0.0240829,0.000809413,-0.00119084,-0.0108194,0.00913326,-0.0205981,-0.0237262,-0.00290354,-0.000287866,-0.00600777,-0.00208903,
0.0313657,0.0430862,0.000154516,0.00462273,-0.00570352,0.00720547,-0.0180334,-0.0175848,0.00162581,-0.000601091,-0.0101462,-0.00241848,
0.0172818,0.0553301,-0.00114397,0.00464097,-0.00734955,0.00108991,-0.0235193,-0.0182059,-0.00124928,-0.000592517,-0.00301653,-0.00113993,
0.000297091,0.0724044,0.00174312,0.00659046,-0.0073869,0.00334227,-0.0225682,-0.0185066,0.00199269,0.00166945,-0.00812061,-0.00533626,
-0.000272109,0.0701636,-0.0027741,0.00564206,-0.00774714,-0.00213459,-0.0155019,-0.0114042,-0.00345768,0.00489699,-0.00710771,-0.00534937,
-0.00631791,0.0643827,0.00429899,0.00630292,-0.0113276,-0.0108335,-0.0116566,-0.0081667,-0.00472275,-0.00153406,-0.00738249,-0.020174,
-0.0120454,0.0569931,0.00235814,0.00664134,-0.00686035,-0.0253302,-0.011998,-0.00654043,-0.0172558,8.30594e-05,-0.00379385,-0.0546393,
-0.0197084,0.046063,0.0084663,0.000540391,-0.00657893,-0.0279177,-0.00525791,-0.00877895,-0.0198088,-0.00248551,-0.0040684,-0.0913607,
-0.0177168,0.0412502,0.0107117,0.00216546,-0.00211277,-0.0366248,-0.000450464,-0.00683362,-0.0249374,0.00202813,0.00113023,-0.0962123,
-0.0205583,0.0377254,0.00555285,-0.00780002,0.0113674,-0.0311693,0.00435617,-0.00907489,-0.0204078,-0.00472677,-0.00139756,-0.0798181,
-0.0124576,0.0222885,0.0113406,-0.000381325,0.015511,-0.0205653,0.0146352,-0.00230304,0.00440393,-0.00665317,-0.00263737,-0.0563436,
-0.0211018,-0.00119755,0.00779256,-0.00455328,0.0180447,-0.00352514,0.0149336,-0.00261511,0.0205231,-0.00407307,-0.000335563,-0.0492902,
-0.0120431,-0.0217872,0.00843029,-0.0071163,0.0183248,0.00997115,0.0226364,0.00190085,0.0263401,-0.00954227,0.0010007,-0.0274295,
0.00119695,-0.0517147,0.00391746,-0.00871432,0.0218243,0.0102654,0.02551,0.00834746,0.0331228,-0.0195194,-0.000238252,-0.00846783,
0.0166868,-0.0729516,0.0045562,-0.00934737,0.0159877,0.0157084,0.0287057,0.00513487,0.0353981,-0.0243464,-0.00276462,0.0124242,
0.0122123,-0.0909714,0.00229793,-0.00611799,0.0143365,0.0195394,0.0251407,0.00707251,0.0479754,-0.0166184,0.000504357,0.0259105,
0.0115974,-0.0948283,0.00293758,-0.00997224,0.0123635,0.0198268,0.0225419,0.00257053,0.0438114,-0.0153301,-0.00459673,0.0348889,
0.00132041,-0.0796934,0.00776288,-0.0038472,0.0139321,0.0159269,0.0250945,0.00579446,0.0489833,-0.0101793,-0.000682986,0.038072,
-0.0102482,-0.0568347,0.00357418,-0.00899105,0.00552075,0.0071958,0.0286134,0.0025789,0.0287211,-0.0133998,1.18432e-05,0.0361038,
-0.019245,-0.0275402,0.00292717,-0.00254589,-0.00224651,0.00361364,0.0318107,0.00386994,0.0239113,-0.00857244,0.00263887,0.0344577,
-0.0172996,-0.00919468,0.00324627,-0.00318435,-0.018706,0.00711213,0.0247064,0.00129715,0.0113739,-0.00599939,0.000115404,0.0395725,
-0.0179336,-0.000832256,0.00259979,-0.000604283,-0.0055466,0.00223806,0.0246852,0.00902603,-0.001165,-0.00181725,0.00113393,0.0475853,
-0.0192152,-0.0024529,-0.00351952,0.00358462,-0.00301109,0.000903271,0.0224107,0.0209397,-0.0281929,0.00880319,-0.000422426,0.0411112,
-0.0205004,-0.0124469,-0.00545345,0.00165577,0.00177824,-0.00912603,0.0194926,0.0318872,-0.0413793,0.00364799,0.00188523,0.0259452,
-0.0188919,-0.0285605,-0.00996283,0.00197968,-0.000836856,-0.0140063,0.0104578,0.0344638,-0.0519923,0.0133017,-0.00288911,-0.00209779,
-0.0131016,-0.0279358,-0.00384807,-0.00156056,-0.00312976,-0.0311225,0.00786185,0.0296354,-0.0555249,0.0158724,-0.00798461,-0.0291744,
-0.00892438,-0.0205529,-0.00385021,0.00359083,-0.00284687,-0.0269926,0.00140252,0.0241626,-0.054553,0.0142575,-0.00342103,-0.0395093,
-0.00829186,-0.0115628,-0.00514015,0.00359033,-0.0292849,-0.0293035,-0.000871791,0.0116067,-0.0539058,0.0119984,0.00146535,-0.0450144,
-0.00766251,0.00193211,-0.00482042,0.00294515,-0.0434888,-0.0129437,-0.00443423,-0.00288151,-0.0506857,0.00748551,-0.000730081,-0.0308804,
0.00230013,0.0122054,-0.00965185,0.00197723,-0.0396635,-0.00463426,-0.00542164,-0.00932184,-0.0426394,0.00361626,-2.70735e-05,-0.0109505,
0.00453329,0.0170037,-0.00385928,0.00229629,-0.0161994,-0.00566289,0.000994972,-0.0106119,-0.0365274,-0.0031507,0.00196471,0.00415128,
0.00418819,0.0114979,-0.00547149,0.00229261,0.0175675,-0.0057273,0.00097197,-0.00449813,-0.0268768,-0.0015474,0.000738133,0.0102398,
-0.00324224,0.00631221,-0.0009669,-0.000287401,0.0127021,0.0119136,-0.00613466,-0.0164141,-0.0272089,-0.00284182,-0.00306287,0.0121444,
0.00799752,-0.0062798,-0.00129155,-0.000292675,0.00687165,0.0115244,-0.00519379,-0.0106243,-0.0198168,4.87817e-05,-0.00428719,0.0220989,
0.00764506,-0.0253122,-0.00515768,-0.00416205,0.0119882,0.005339,-0.00167854,-0.0157816,-0.0172562,-0.00156804,-0.00261282,0.0285136,
0.0114757,-0.0218102,-0.0012973,-0.00255923,0.0119548,-0.00310113,0.00376707,-0.00935018,-0.00568325,-0.000287602,0.00196028,0.0320326,
0.00693372,-0.0131584,-0.00355393,-0.00031332,0.0157858,-0.00381568,-0.00076894,-0.013544,-0.00924347,0.000348731,0.00106168,0.014627,
0.0114042,-0.00128832,-0.00355704,-0.00386317,0.0170426,-0.00356533,0.00306401,-0.00679308,-0.00314712,-0.000302914,0.00209611,0.00269619,
0.0123315,0.0118685,-0.0071016,-0.00194081,0.0160471,0.000547511,-0.00244103,-0.00358474,-0.00510077,-0.00288642,0.00152224,0.0113715,
0.0184081,0.0192295,0.00223146,-0.00291672,0.0144091,-0.000491426,-0.00279677,-0.00166541,-0.00190461,-0.00450429,0.000627912,0.0142538,
0.0112835,0.0101708,-0.000347367,0.000613768,0.0143822,-0.00314067,-0.00959327,-0.00232288,0.000646657,0.0035359,-0.000586839,0.0181037,
0.0138155,-0.0207805,-2.87431e-05,-0.00487089,0.0117812,-0.00675621,-0.00963102,-0.00298161,0.00867013,-0.00130176,-0.00469749,0.0290382,
0.0124827,-0.0459373,0.00318736,0.000911659,0.0104695,-0.000391918,-0.00902702,0.00118752,0.0144394,0.00351868,0.00213951,0.0309603,
0.0124362,-0.0636897,-0.0003573,-0.00425257,0.00754948,-0.00400807,-0.0129325,0.00181402,0.0160231,-0.00228513,0.004471,-0.00832448,
0.00240797,-0.0656669,0.00479051,0.00346015,0.0113917,-0.0250092,-0.0110453,-0.00142404,0.0198603,-0.00197218,0.00616033,-0.0337639,
0.00332438,-0.0628148,0.00543119,-0.00299329,0.00364546,-0.0360301,-0.0155993,-0.00305366,0.0288485,-0.00326908,0.00431009,-0.0366657,
0.00617101,-0.0586743,0.00800359,-0.00107694,0.00555886,-0.0264466,-0.0185462,0.0011104,0.0243154,-0.0116488,0.00954438,-0.021859,
-0.00289561,-0.0413334,0.00123974,0.00212649,0.00296645,-0.00108756,-0.0189201,0.000122132,0.0207484,-0.0100485,0.00962946,-0.0189625,
-0.00971004,-0.0326835,0.00606588,0.00339761,0.00552644,0.0171893,-0.021872,-0.00279906,0.0146064,-0.00844821,0.00810671,-0.0186397,
-0.00718954,-0.0134077,0.0070288,0.000804786,0.00454636,0.0341792,-0.0277241,-0.000892372,0.0229522,-0.00105302,0.0104492,-0.0179933,
-0.00177292,0.0177823,0.0089576,-0.00243256,0.006465,0.0321754,-0.0258521,-0.00220637,0.0129481,-0.00138444,0.00957413,0.00325926,
-0.0044062,0.0499409,0.0050915,-0.00277304,0.00838483,0.0250216,-0.0214072,0.0106438,0.0155003,0.00246943,0.0125643,0.0151774,
-0.00929439,0.0779177,0.0047668,-0.00311412,0.0128813,0.0123961,-0.0234036,0.0115809,0.00549757,0.00149426,0.0165222,0.0148637,
-0.0228763,0.112659,0.000900734,-0.00184607,0.0128717,-0.000228062,-0.0241147,0.0128387,0.00096862,0.00309477,0.0114676,0.00843519,
-0.0248695,0.122937,-0.00908225,-0.00669548,0.0141508,-0.00866554,-0.0232184,0.0131294,-0.00742283,0.00372962,0.0134976,0.00973536,
-0.0194592,0.118732,-0.00393402,-0.00575048,0.0176845,-0.013882,-0.012988,0.00987742,-0.00969655,0.000179448,0.0174611,0.0219837,
-0.0166256,0.115819,-0.0097319,-0.00673763,0.0154239,-0.0229602,-0.00919847,0.00952159,-0.0174424,0.0017806,0.0204604,0.040995,
-0.0160465,0.140276,-0.00136442,-0.00901302,0.00994464,-0.0120762,-0.000581781,-0.00403525,-0.0116658,0.00724536,0.0102618,0.0426235,
0.00706765,0.143489,0.00088604,-0.0087133,0.00768531,0.0178043,0.00127237,-0.00342807,-0.00492238,0.00820324,0.0177716,0.0329862,
0.0221325,0.113546,0.000560842,-0.0119553,-0.00712937,0.0196779,-0.0017042,-0.00958318,-0.00365093,0.00401041,0.0111174,0.0191658,
0.0285044,0.0617155,0.00828406,-0.00360774,-0.0164708,0.0250951,0.00819548,-0.00672544,-0.00205643,0.0056129,0.0109034,0.0150056,
0.016847,0.00183976,0.00151974,-0.000411488,-0.0502797,0.0272951,0.00650399,-0.00902037,0.000505088,0.00624996,0.00940275,-0.00203048,
0.0206424,-0.0461211,0.0111743,0.00149682,-0.0660599,0.0243464,0.0144697,0.00123883,0.00693118,0.00398994,0.00886902,-0.0103724,
0.0205741,-0.0915038,0.00247798,0.00276114,-0.0377341,0.0127078,0.0124542,-0.0074982,0.0143245,0.0023742,0.00479483,-0.0164591,
0.0192178,-0.112095,0.00504941,0.00305961,0.00314735,-0.0137378,0.0181644,-0.00625671,0.0156023,0.00108081,0.00329691,-0.0128861,
0.0172173,-0.103066,0.00536699,0.000782576,0.0176294,-0.0179667,0.0122841,-0.0114557,0.014306,-0.000534121,-0.00109792,0.00903899,
0.0258406,-0.0866306,0.00986953,-0.0011724,0.017302,-0.0086716,0.00930072,-0.0221295,0.0126893,-0.00858749,-0.00549236,0.027424,
0.0315662,-0.0611797,0.00825484,-0.00216138,0.0211598,0.0157574,0.0069607,-0.0276539,0.0223422,-0.00891385,-0.00602326,0.035186,
0.0289209,-0.0341181,0.0069617,-0.00218429,0.0314563,0.0128241,0.00365446,-0.0380091,0.0223383,-0.00827398,-0.0104174,0.0345785,
0.0105001,-0.0202551,-0.00173656,0.00551972,0.0327382,-0.00362808,0.00292345,-0.0409613,0.0265213,-0.000550964,-0.0132019,0.0355816,
-0.00180426,-0.0160492,-0.00753785,0.00485362,0.0250055,-0.000439024,0.00251414,-0.0481003,0.0117113,0.00717249,-0.0221036,0.0320781,
-0.0105678,-0.0173153,-0.00593505,0.00418798,-0.00397571,0.00919169,0.0101532,-0.0404313,0.0107462,0.0110331,-0.023601,0.0256776,
-0.0190101,-0.0201901,-0.014635,0.00738615,-0.0307038,0.0191472,0.013285,-0.0240712,0.0113923,0.0155381,-0.0212355,0.0102628,
-0.0184388,-0.0201662,-0.0139994,0.00704353,-0.0297454,0.015584,0.026397,-0.0135072,0.0117178,0.0142486,-0.0188707,-0.00225457,
-0.0201219,-0.0149901,-0.00628175,0.00895512,-0.0349045,0.022004,0.0218022,-0.00423168,0.00785934,0.0119937,-0.0177942,-0.0215332,
-0.00892825,0.00885999,-0.0101548,0.00249688,-0.0320158,0.0136175,0.0268656,-0.000751747,-0.00469038,8.10189e-05,-0.00706025,-0.0401687,
-0.00707181,0.0385064,-0.00758973,0.00505372,-0.0197915,0.0145702,0.0287097,0.0110983,0.00626277,0.00330003,-0.00340974,-0.0423861,
-0.0116552,0.0652568,-0.00953266,0.00439187,-0.0043486,0.00715521,0.0254027,0.01329,-0.00403128,-0.00410467,0.00152776,-0.0355903,
-0.0204247,0.0784871,-0.00374976,0.00598438,0.00368895,0.00328442,0.0175885,0.0158038,-0.0133586,-0.00152883,2.5603e-05,-0.0313715,
-0.0127763,0.0717585,-0.00762591,0.00274854,0.00818445,-0.00734441,0.0142814,0.0173522,-0.0297679,0.000725381,0.000454267,-0.023291,
-0.009314,0.060846,0.00395039,0.00691817,0.00881595,-0.0102439,0.00711078,0.0266277,-0.0271819,-0.00217121,0.000882067,-0.0197194,
-0.00875017,0.0612028,0.000394659,0.00851308,0.00751513,-0.0128189,-0.00263571,0.0320406,-0.0233074,0.00233711,0.00485034,-0.013896,
-0.0130164,0.0844185,0.00520868,0.00366997,0.00363811,-0.00766464,-0.0110948,0.0271524,-0.016213,0.00233845,-0.00051863,-0.0190206,
-0.000542497,0.0873526,0.00648061,0.00140322,0.000404309,-0.00669307,-0.0185887,0.0306357,-0.00300102,0.00169607,0.00666719,-0.0164206,
-0.00320071,0.0745119,0.00710794,-0.0031163,0.00135509,-0.00700673,-0.0228637,0.0276813,0.000875227,-0.00087782,0.00322793,-0.0199395,
-0.00167446,0.0558763,0.000651829,-0.00409363,0.000695494,-0.0153664,-0.0226323,0.031489,0.00861539,-0.0018419,0.00493872,-0.0176655,
-0.00723164,0.026938,-0.00483918,-0.0031385,-0.00350614,-0.00376316,-0.0307721,0.0153375,0.0134587,-0.00505951,0.00278514,-0.0170034,
0.012322,-0.00135751,-0.00131653,-0.00314837,-0.00384516,-0.00632284,-0.0292544,0.0194698,0.0202342,-0.00956487,0.00449375,-0.00604127,
0.0231826,-0.0283669,-0.00423344,-0.00283547,0.00354175,-0.00533862,-0.0332106,0.00750627,0.0163863,-0.00569972,-0.00120348,0.00137739,
0.0311451,-0.0431448,-6.83525e-05,-0.00735086,-0.00194971,-0.00306409,-0.0326604,0.00391458,0.0154364,-0.0127806,-0.0014289,-0.000220417,
0.0275173,-0.055028,0.00280825,-0.00220716,0.00543581,0.00082272,-0.0301793,0.00837276,0.014487,-0.0108472,0.000919936,-0.00246419,
0.0358007,-0.0669145,0.00471831,-0.0063989,-0.00198869,-0.00204866,-0.0235136,0.00188621,0.0080651,-0.00633827,-0.000917794,-0.00149061,
0.0292743,-0.0701124,0.00405213,-0.00157539,-0.00233116,0.00667248,-0.0178142,0.00377142,0.00647267,0.00203394,-0.00372272,0.00302228,
0.0227473,-0.070417,-0.000156131,-0.00673116,-0.00460599,0.00477218,-0.0172664,0.00211649,0.00423665,-0.00408128,0.000553646,-0.00180317,
0.0101026,-0.0716919,0.00400538,0.00710858,0.00116703,0.00480618,-0.0138213,0.00722355,-0.000896649,0.00268119,0.002253,-0.000835673,
0.00582766,-0.0864932,-0.0031018,2.30526e-05,-0.00786999,0.00130148,-0.0164932,0.00428321,-0.0176197,0.00203898,-0.00345383,-0.0130698,
0.0137856,-0.0890656,0.00459962,0.00356261,0.00112104,0.00423831,-0.0165895,0.0103584,-0.0288698,-0.0024665,0.00113991,-0.0262717,
0.0262496,-0.0755461,-0.00250904,0.000342419,-0.00244437,0.00428035,-0.0189391,0.0125713,-0.0227351,-0.00439643,0.00122484,-0.0253101,
0.0213276,-0.0562367,-0.000282133,0.00259629,0.00171615,0.00271537,-0.010986,0.0112438,-0.0182101,-0.00664825,0.00517141,-0.0156579,
0.00738987,-0.0340349,-0.00417288,2.21003e-05,-0.00893334,0.00759192,-0.0165538,0.0092734,-0.0130415,0.0010802,0.00299935,-0.00826105,
-0.000432537,-0.00024823,-0.00259139,2.45442e-05,-0.00413029,0.00699814,-0.0111745,0.0047283,-0.0201067,0.000116295,0.00307911,-0.016963,
-0.00954444,0.0109977,-0.00905921,2.81053e-05,-0.00415701,0.00576315,-0.00804759,0.00501309,-0.00334841,0.00881076,-0.00167209,-0.0256666,
-0.00706837,0.0129025,-0.0113426,-0.00544021,-0.000643009,0.000667518,-0.00330944,0.00368882,0.00761481,0.0107446,-0.00417159,-0.026323,
-0.0023408,0.0205976,-0.0133047,-0.00479046,0.0022265,0.00169142,0.00464992,0.0013993,0.0176121,0.0133224,-0.00474138,-0.0279466,
0.000452816,0.0102595,-0.0130141,-0.00446147,0.00155407,0.000142409,0.0151869,-0.0124797,0.0128,0.00913959,-0.00499124,-0.0166937,
-0.00673623,-0.00652182,-0.0101486,-0.000589897,-0.000406686,-0.000116247,0.0244384,-0.0125148,0.0134607,0.00334721,-0.00234568,0.00840187,
-0.00974268,-0.0223417,-0.011469,0.00779012,0.00278309,-5.0394e-05,0.0317609,-0.0151252,0.0128337,0.00689127,0.0019075,0.0305992,
-0.012108,-0.0301172,-0.0095706,0.00844481,0.000499331,0.0128957,0.0316816,-0.0283595,0.00705538,0.00689406,-0.00382168,0.0276845,
-0.0106131,-0.0285605,-0.00059005,0.00781305,0.00111256,0.0258443,0.0267762,-0.0300038,0.00127693,0.00818469,-0.00150449,0.0312083,
-0.0165259,-0.0131643,0.00227312,0.00106572,0.000115596,0.0214104,0.0234838,-0.036799,-0.00417978,0.00110486,-0.00723809,0.0279712,
-0.0198664,-0.00485459,0.0061017,0.00655354,-0.000237941,0.028247,0.0237361,-0.0339359,-0.00287595,-0.00114584,-0.00202792,0.0302069,
-0.0283614,-0.00878232,-0.00230385,0.00045281,-0.00413328,0.0260715,0.0130459,-0.0404091,-0.00607959,0.000144775,-0.00680026,0.0224625,
-0.0317087,-0.010138,0.00764102,0.00529947,0.00130727,0.0203568,0.015237,-0.0262778,-0.00381055,-0.00307189,-0.00127279,0.0118207,
-0.0257233,-0.0227648,-0.00140889,0.000167305,-0.00548637,0.00756155,0.00551996,-0.0266336,-0.000576045,-0.00113761,-0.00411817,0.000535139,
-0.0236048,-0.0273462,0.00402844,0.00179729,-4.6589e-05,0.00539225,0.00643082,-0.0121797,0.00619944,-0.00628623,0.000438729,-0.0117161,
-0.0340456,-0.0200185,0.000451317,0.000209227,-0.00297766,-0.000316637,-0.00166883,-0.00416413,0.010399,-0.00016709,-0.00273338,-0.0101236,
-0.028393,-0.00689845,0.00814214,-0.003953,-0.00816265,9.29639e-05,-0.0026818,-0.0016209,0.00719337,-0.00274063,-0.0020446,-0.0030578,
-0.0304704,0.0029999,0.00520892,-0.00264085,-0.00884075,0.0021137,-0.00465658,0.0034987,0.0149333,-0.00241696,-0.00200214,0.0162421,
-0.029332,0.019657,0.00517325,-0.0106636,-0.00758745,-0.0126053,0.00109934,0.00539989,0.0110828,-0.00756661,-0.00389379,0.0294254,
-0.0211143,0.0198933,0.00513772,-0.00194408,0.00203613,-0.0260354,0.00814718,0.0163166,0.0149582,-0.00563386,7.05499e-06,0.0422871,
-0.0151534,0.00660658,0.00156099,-0.00899828,0.000391568,-0.0356013,0.00586294,0.0195081,0.0111064,0.00016184,-0.000601761,0.0496763,
-0.0140248,-0.00925696,0.00056001,-0.00607088,0.00679545,-0.0322887,0.0103438,0.0288179,0.0101512,-0.00595468,0.00329413,0.0483733,
-0.0122552,-0.0254435,-0.00237238,-0.00217621,0.0096579,-0.0209268,0.0167606,0.0333001,-0.00175087,0.00209387,0.00171451,0.0351588,
-0.0120983,-0.0393771,0.00177822,-0.0060067,0.00221818,-0.016647,0.0218941,0.0329549,-0.00882481,0.00338124,-0.00018956,0.0270955,
-0.00518311,-0.0574965,-0.00308524,-0.00339685,0.00347092,0.000511046,0.0209152,0.0303579,0.00116307,0.0123948,-0.00821304,0.0216077,
0.0146073,-0.0691773,-0.00569476,-0.00690236,0.000538456,0.00607975,0.0244478,0.0226116,0.00149148,0.0069206,-0.00658079,0.0116125,
0.00509871,-0.0670144,-0.00315283,-0.00106998,0.00662045,0.0477065,0.0270191,0.0216278,-0.00912744,0.00917253,-0.000443878,-0.0154459,
-0.0127824,-0.0645289,-0.00576154,-0.00135288,-0.00146291,0.0629344,0.0225121,0.0125972,-0.0355229,0.000799899,-0.000426401,-0.047978,
-0.0361384,-0.0556035,0.000644588,0.00351697,0.00397543,0.0678606,0.0254141,0.00646577,-0.0387401,0.00176307,-0.00588447,-0.0772914,
-0.0395356,-0.0495739,-3.14866e-05,0.000661939,-0.00185405,0.0595874,0.0176963,0.00355547,-0.0329445,-0.00435704,-0.00587205,-0.0795627,
-0.0480853,-0.0242255,0.0015466,0.00424751,0.0103454,0.0422998,0.0225384,0.00611978,-0.0174921,-0.0120875,-0.00199885,-0.0792594,
-0.0434366,-0.00273759,-0.00524518,0.00590326,0.00676988,0.0179292,0.019336,0.00643204,-0.00912408,-0.0165991,0.00605709,-0.0647916,
-0.0397545,0.0303438,0.00341691,0.00595115,0.00190679,0.00965524,0.0158156,0.00577995,-0.00655255,-0.0159603,0.0015548,-0.0522565,
-0.030278,0.0672928,-0.000476005,0.00374734,-0.00842911,0.00170233,0.00907949,0.00770479,-0.00559226,-0.0124248,0.000269446,-0.0287761,
-0.02885,0.0710866,0.00239263,0.00154546,-0.00781876,-0.0133345,0.00685416,0.0109187,-0.012682,-0.0101776,-0.00391586,-0.0172083,
-0.0158319,0.0626521,0.00236461,0.00996963,-0.00109128,-0.0270851,0.00237863,0.00833891,-0.0139782,-0.00857505,-0.00198674,-0.00016782,
-0.0166564,0.0571211,-0.000881962,0.00229867,0.00531449,0.00906347,-0.00112788,0.00769188,-0.0255779,-0.00665116,-0.0087525,0.0287843,
-0.0065337,0.0532061,0.00327705,0.00493187,0.00238421,0.00818654,-0.00559721,0.0096214,-0.0294523,-0.00794729,-0.00521856,0.05999,
-0.0038139,0.0502639,0.00389567,0.00338183,0.000420032,0.0285553,-0.00426877,0.00318133,-0.0291427,-0.00280514,-0.00555034,0.0615772,
0.00212754,0.0531238,8.10197e-06,0.00505323,-0.00894852,0.034112,-0.00647907,0.00640029,-0.0214295,-0.00957535,-0.00266509,0.0573699,
-0.00480598,0.0534157,-0.0045223,0.00382919,-0.0179948,0.0354802,-0.00578944,-0.000360292,-0.00599053,-0.000570878,-0.00461133,0.0370659,
0.00758023,0.0521057,-0.000359173,-0.00190001,-0.0218897,0.0181723,-0.00992669,-0.00486677,0.00976959,-0.00412255,-0.00173076,0.0238451,
0.00355111,0.0578863,0.0031612,0.00686021,-0.00163862,0.0118065,-0.00987659,-0.0103387,0.0239194,0.00359342,-0.00561326,0.0028981,
0.0175549,0.0649627,0.00281945,-0.000796581,0.00251581,-3.66629e-05,-0.0085368,-0.0209614,0.0232595,0.00487025,-0.00273721,-0.00259518,
0.0196516,0.0639988,0.00247892,0.00700187,0.0147193,-0.00963102,-0.00429776,-0.025789,0.024531,0.00389327,-0.00179502,0.00478964,
0.0323775,0.0630431,0.000851883,-0.00644584,0.00245568,-0.0304986,-0.0122909,-0.034158,0.0119589,0.00291613,-0.00504021,0.0173259,
0.0348068,0.0627395,0.00630886,-0.000896961,0.010797,-0.0597423,-0.00193182,-0.0376978,0.0119424,0.00580218,-0.00184866,0.0253554,
0.038208,0.0550392,0.00210891,-0.000819099,0.00690506,-0.0844848,-0.0038052,-0.045101,0.00258975,0.00546875,-0.00638576,0.0282341,
0.0425814,0.0457372,0.00370528,0.00441183,0.007521,-0.0818686,0.00108343,-0.0438118,-0.0083725,0.00384752,0.000987025,0.0214547,
0.0453518,0.0335454,0.000473909,-0.000335466,-0.000554816,-0.0744299,-0.00432897,-0.0412348,-0.00194966,0.0089871,-0.0022662,0.0104902,
0.0494171,0.0397118,0.0052925,0.00200194,0.00167221,-0.0547643,-0.00072602,-0.0293215,0.00865874,0.00640013,0.000595624,0.0107937,
0.0489824,0.0458854,0.00882476,0.00273161,0.00293413,-0.0363933,-0.00291716,-0.0190177,0.0199114,0.00767654,0.00345566,0.0133506,
0.0453359,0.0774992,0.0126804,0.000565753,0.0103137,-0.0257559,0.000365459,-0.00678192,0.0124919,0.000260612,-0.000124875,0.00689292,
0.0426629,0.116202,0.013962,0.00290903,0.00546017,-0.0231741,-0.00279014,0.000303276,0.00539489,0.00475666,0.000478178,-0.00181882,
0.0483682,0.142355,0.0149231,0.00718588,0.0089779,-0.0286479,0.00210332,0.00223807,-0.00266739,0.00410176,-0.00246173,-0.00634592,
0.0479645,0.143403,0.0142759,0.0050258,0.00927696,-0.0315531,0.00184611,0.00385177,-0.00203662,0.000227569,-0.000574052,-0.00829825,
0.0633439,0.111938,0.00976683,0.00834062,0.0102206,-0.0296361,-0.000342482,0.00932978,0.00567754,-0.000105116,-0.00126338,-0.0192659,
0.0587708,0.0968971,0.0120199,0.00489651,-0.00686374,-0.0235407,-0.00156509,0.0109457,0.0191874,-0.00591067,-0.000344413,-0.0360295,
0.0464789,0.0654397,0.0171718,0.0020981,-0.00785031,-0.0261445,-0.00439736,0.0186798,0.026581,0.0011616,-0.0010365,-0.0424921,
0.0377361,0.00629724,0.0129886,0.00187701,-0.00690457,-0.0319743,-0.00529805,0.0202986,0.0313999,-0.002712,0.00245538,-0.027064,
0.0241717,-0.0505908,0.0146015,0.00423319,0.0091731,-0.0310497,0.00345934,0.0251383,0.0381512,0.0043606,0.000794973,-0.0193639,
0.0125463,-0.0929917,0.0113863,-0.00242333,0.005291,-0.0359263,-0.00742204,0.0222532,0.0249428,0.00467258,0.000743127,-0.0126309,
0.0183128,-0.128955,0.0142891,0.00476531,0.00623865,-0.0330823,-0.00542612,0.0296721,0.0114131,0.00562863,0.00101214,0.00440289,
0.0340664,-0.174257,0.00785629,0.00197533,0.00396748,-0.01962,-0.0101915,0.0245371,-0.0156376,0.0030435,-0.00032959,0.0140306,
0.0427439,-0.179319,0.0123703,0.00787932,0.00910154,-0.00390953,-0.00626504,0.0284185,-0.0265908,0.00464379,0.00058132,0.00401846,
0.0311452,-0.185673,0.00336322,0.00702401,0.00329011,0.00567889,-0.0123195,0.025219,-0.0249878,0.00688814,0.00181327,-0.0146875,
0.0185867,-0.195572,0.0110976,0.0029507,0.000698597,0.0146186,-0.00420922,0.0348992,-0.0143701,0.00269381,0.000790791,-0.0333949,
-0.00330256,-0.173603,0.00692035,0.00209817,0.00293666,0.016793,-0.0128408,0.0426496,-0.00439612,0.00204099,-0.000232466,-0.0311774,
-0.0277622,-0.140372,0.00113348,0.00221274,0.000989889,0.0186411,-0.00666393,0.0397777,0.000105119,-0.000543366,0.000353268,-0.0115765,
-0.0432026,-0.0855746,-0.00980454,0.00812347,-0.00385401,0.0191976,-0.00241968,0.0317565,0.0168404,0.00105763,-2.7484e-05,-0.0183761,
-0.045439,-0.0298161,-0.00464572,-0.00109594,-0.00740982,0.0171748,-0.00268362,0.0237368,0.0216639,-0.0012046,-0.00201855,-0.0396643,
-0.0409105,0.0127385,-0.00817976,0.000953672,-0.00678013,0.0071,-0.00262667,0.0147526,0.0190829,0.000718478,-0.00175655,-0.0422811,
-0.0383097,0.0456308,-0.0216946,0.0010726,-0.0022869,0.00732411,-0.00289276,0.0025502,0.010707,0.0042513,-0.00374863,-0.0381381,
-0.0337737,0.0675733,-0.0207228,0.0073093,0.000274874,-0.00146917,-0.00444774,-0.00289047,-0.00925878,-0.00541549,0.00230742,-0.028201,
-0.0302001,0.0753468,-0.0171763,0.00453243,0.00154904,0.00518797,-0.0134085,-0.00929623,-0.0292247,0.00101482,0.0012804,-0.0314642,
-0.0118138,0.0670198,-0.0165282,0.00143431,-0.0013619,0.00540368,-0.0159317,-0.0202087,-0.0401764,-0.00189123,0.000896971,-0.0173429,
-0.00437051,0.040017,-0.0136277,0.00702924,0.0037758,0.00722672,-0.0178122,-0.0214625,-0.0421139,0.00453899,0.00373274,-0.00193401,
0.0281873,0.0178399,-0.0126599,0.00135671,0.00247474,-0.00125457,-0.0180842,-0.0275454,-0.0450175,-0.00770351,0.00367087,0.0144408,
0.0349926,0.00531796,-0.0126592,0.00373314,-0.00301153,0.00474956,-0.0161038,-0.0271895,-0.0305364,0.00291178,-0.0008983,0.0221236,
0.0340739,0.00470454,-0.0100843,-0.00290451,-0.00817585,-0.00180384,-0.0144465,-0.0300532,-0.0273234,-0.00611152,-0.000638386,0.0301289,
0.0196363,0.01439,-0.00815454,0.00526738,-0.00175029,0.00290914,-0.00667343,-0.0258345,-0.0138082,-0.000969497,0.00445066,0.0400668,
0.00681065,0.00797494,-0.0110553,0.00667856,-0.0085244,0.00182576,-0.00694998,-0.0315964,-0.00769772,-0.00612977,0.0066423,0.0525814,
-0.00794453,0.00187845,-0.00333333,0.00808971,-0.00596227,0.0110433,0.00275269,-0.0244811,0.0119346,-0.00485137,0.00497074,0.0522195,
-0.00370328,0.00382705,-0.000441896,0.00434965,-0.0085513,0.0044847,0.00344005,-0.0231612,0.0215871,-0.00196343,0.00973818,0.0505713,
-0.0168453,0.00512824,-0.002381,0.00640427,-0.00437965,0.00951515,0.012819,-0.0186224,0.0280207,-0.00680227,0.0119303,0.0457051,
-0.018074,-0.00194466,-0.00271181,0.0062049,-0.00890053,0.0135791,0.0112511,-0.0131183,0.0305915,-0.00906574,0.0131568,0.0447038,
-0.0183357,-0.00419209,-0.00465375,0.000853914,-0.000865771,0.0128134,0.0190188,-0.00825854,0.0289778,-0.00553443,0.0134177,0.0282507,
-0.00346512,-0.0218965,-0.00498741,0.00226303,-0.00087965,0.00206719,0.0219567,-0.00178949,0.0309063,0.0015381,0.0136789,0.0224232,
-0.00211529,-0.0418582,-0.00596638,0.000129966,0.000716105,-0.00191848,0.0213526,-0.00401324,0.0309038,0.00442525,0.010077,0.00726065,
-0.00655977,-0.0312393,-0.0146734,0.00507866,0.00263374,-0.00687005,0.0201039,0.00213318,0.03219,0.00248315,0.00905083,0.00401124,
-0.0161548,-0.0248095,-0.0233818,0.00390933,0.00326355,-0.00345106,0.0178888,0.00602575,0.0331549,0.0024726,0.00319577,-0.00696364,
-0.00611115,-0.0238565,-0.0140628,0.00338263,-0.00512105,-0.000997674,0.0127754,0.00702063,0.0199551,-0.00429883,0.00120417,-0.00538177,
-0.0102327,-0.024517,-0.00925239,0.00607392,0.00194754,0.00177801,0.0128124,0.0150981,0.0154483,-0.00205595,-0.00175313,-0.0134572,
-0.00855934,-0.0145571,-0.00830653,0.00329063,-0.000964093,0.00165673,0.00930716,0.014483,-0.000647887,-0.00689586,-0.00406647,-0.0109078,
-0.018154,-0.00202526,0.000686673,0.0059786,-0.0013002,0.00411164,0.00515715,0.0157995,-0.00193438,0.00403934,-0.00283841,-0.0109333,
-0.0213101,0.00696173,-0.00255505,-0.00067165,-0.00517767,-0.00212508,-0.00350102,0.00616982,-0.0138447,0.000165181,-0.00998083,-0.0157872,
-0.0189935,0.00564321,0.00386043,0.00362205,0.00221285,-0.00127813,0.0013613,0.0110275,-0.0144869,0.00466151,-0.00939668,-0.0199968,
-0.0215064,-0.00759045,-0.00163692,0.00147465,-0.00681564,-0.00107397,-0.00923076,-0.000533918,-0.0244655,0.00400677,-0.0104223,-0.0187328,
-0.00792277,-0.0147104,-0.0013402,0.00576367,0.00154079,0.00106308,-0.00082948,0.00400167,-0.0289711,-0.000189312,-0.00339941,-0.0145709,
0.00469453,-0.012497,-0.000400426,0.00232347,-0.00491204,0.00674288,-0.0111022,0.000810535,-0.0350865,0.0014096,-0.00442516,-0.0116963,
0.0111943,-0.00352584,0.000538611,0.00113408,-9.6812e-05,0.00791702,-0.00302556,0.00566783,-0.0251051,0.000111079,-0.00223157,-0.00592392,
0.0106108,0.00383284,-0.000776607,0.000907537,0.002143,0.0136,-0.00847199,0.0147102,-0.00868497,0.0010662,0.00124971,0.00467805,
0.0103485,0.00893525,-0.00177046,0.000999782,0.0104998,-0.000675601,0.000567426,0.0179575,0.000330254,-0.00312968,-9.82165e-05,0.00690994,
0.00686607,0.00630853,0.00109848,-0.00213074,0.00597917,-0.00722269,-0.00134078,0.0173412,0.016428,0.00201083,-0.000480384,0.0110739,
0.0111094,0.00657688,0.00203536,-0.00751838,0.00918528,-0.028899,-0.000675115,0.0144711,0.0144968,0.00200034,0.0046104,0.0107311,
0.0108446,0.0165012,0.00780103,-0.00550508,0.00981604,-0.0380174,0.000310781,0.0132103,0.0170727,0.00198994,0.00294033,0.019725,
0.0105789,0.00968236,-0.000599021,-0.00671509,0.0149542,-0.0358655,-0.00321228,0.00744184,0.00741457,-0.00188366,0.00513351,0.0242121,
0.0183606,0.00736863,0.000980946,-0.00857305,0.0110781,-0.0321013,-0.000942214,0.00231676,-0.0135117,-0.00479134,0.00314137,0.0180754,
0.026463,0.00247738,-0.00162445,-0.00753776,0.0123532,-0.0260808,0.00261374,0.00266403,-0.0286433,0.00163741,0.00436857,0.00968543,
0.0252277,0.0065986,0.00124312,-0.0116579,0.00590181,-0.0116869,0.000694749,-0.00535994,-0.0334729,0.000339668,0.00430792,0.00966612,
0.0146546,0.0136155,0.00153518,-0.00837799,-0.0111736,0.00753955,-0.00154817,-0.00630207,-0.020596,0.00258342,0.0045691,0.0157638,
0.00633347,0.0199867,0.00118345,-0.0170146,-0.0514288,0.0126041,-0.00540285,-0.0207667,-0.0170556,0.00257372,-0.00450616,0.000613293,
0.00348344,0.0263562,0.00211966,-0.0118125,-0.0433928,0.0173505,-0.000567185,-0.00947714,-0.00578866,0.00707134,-0.00360136,-0.00294742,
-0.00355391,0.0224219,-0.00241692,-0.0156297,-0.0134646,0.0230669,-0.0044261,-0.0110664,-0.00997503,0.00126698,-0.00398449,-0.00618644,
-0.013813,0.0310417,0.00560254,-0.0126911,0.0129221,0.0294316,0.00298076,-0.00493025,-0.00192758,0.000613826,-0.00243615,-0.00749415,
-0.0234306,0.0216311,-0.000543071,-0.0126551,0.0196705,0.0245329,-0.00184841,-0.00845369,-0.0102991,-0.000361122,-0.00539519,-0.0178167,
-0.0233926,-0.000336918,0.00683331,-0.0132682,0.0186924,0.0270436,0.000724792,0.000255307,-0.00321711,-0.00391147,-0.00223754,-0.0287837,
-0.020782,-0.02617,0.00455192,-0.0154963,0.0225436,0.0202231,-0.00829424,0.00252405,0.00579681,-5.70052e-05,0.00124184,-0.0474779,
-0.0178523,-0.0500733,0.00870993,-0.0100031,0.0270388,0.0185588,-0.00250632,0.00382549,0.015455,-0.00264125,-0.000752003,-0.0452466,
-0.0281254,-0.0681833,0.00353222,-0.00805654,0.0234857,0.0107829,-0.00476936,0.00415958,0.0206066,-0.00490342,0.00337083,-0.0365772,
-0.0290653,-0.0689104,0.00543788,-0.0164175,0.0083427,0.0139585,-0.0105762,0.00127268,0.0196418,-0.00748738,0.00588374,-0.0320937,
-0.0296865,-0.0577272,0.008632,-0.0086868,-3.94255e-05,0.0107007,-0.000288425,0.00160356,0.0257605,-0.00652984,0.00131369,-0.0115136,
-0.0361061,-0.044614,0.00506606,-0.0151269,-0.0122849,0.0122777,-0.00384665,-0.00997911,0.0270507,-0.00203077,0.00221641,-0.000592378,
-0.0373779,-0.0221659,0.00729583,-0.0122361,-0.0116527,0.00709966,-0.00805128,-0.0106175,0.026088,-0.00686783,0.00537247,0.0174112,
-0.0186926,-0.000362716,0.00598501,-0.0116042,-0.0190691,0.0238194,-0.014512,-0.0119016,0.0299552,-0.00140255,0.000479715,0.0280098,
-0.00355189,0.0217615,0.00853828,-0.0122654,-0.0371099,0.0257357,-0.011961,-0.0112559,0.0267404,-0.00849276,-0.000871971,0.034101,
-0.00773095,0.0345488,0.00948263,-0.0045614,-0.0293954,0.015746,-0.0148854,-0.000953813,0.0280335,0.00115827,-0.00190203,0.00767594,
-0.0154545,0.0392872,0.0113936,0.00378125,-0.00622787,0.00994746,-0.0120174,-0.00256549,0.00582528,0.00469271,0.00350643,-0.0206809,
-0.0247908,0.0282502,0.00590071,0.00181659,0.0069593,0.036349,-0.014625,0.00290362,0.00325601,0.011125,-0.00396315,-0.0403453,
-0.0260816,0.01335,-0.00184502,-0.00208483,0.0133856,0.043118,-0.0236738,-0.00160941,-0.00510787,0.00886516,-0.00306261,-0.0468102,
-0.0328481,0.00424498,-0.00347309,0.000125591,0.0143388,0.0450637,-0.021135,-0.000329458,0.00165975,0.0127227,-0.00119663,-0.0346023,
-0.0341444,-0.00485976,-0.00252491,-0.003142,0.00724344,0.042186,-0.0321201,-0.00774392,0.00327639,0.0123953,-0.00287242,-0.0217503,
-0.0389845,0.00116724,0.0016434,-0.00963395,0.000791931,0.0467186,-0.0241129,-0.00389241,0.0168049,0.0175414,-0.00229504,-0.00600044,
-0.0354564,-0.00407313,-0.00352392,-0.0138772,-0.0108107,0.0377351,-0.0241562,-0.00390622,0.0174555,0.0146393,-0.0033278,0.0107158,
-0.0299987,0.000345497,0.00450904,-0.0152277,-0.00663811,0.0326201,-0.0164749,-0.00102457,0.017784,0.00884009,0.00143396,0.02035,
-0.0126309,-0.0013519,0.000308866,-0.0127197,-0.00471915,0.0259004,-0.0161999,0.00121117,0.0087757,0.00239734,0.00490751,0.0315949,
-0.00621062,-0.00723353,-0.000349318,-0.00989436,-0.00344404,0.0166099,-0.000795189,0.00183518,-0.00699398,-0.00146959,-0.0015996,0.0177294,
0.0169495,-0.0266356,0.00478806,-0.00868323,-0.00281277,0.00700186,0.00945712,0.0130812,-0.0240522,-0.00726794,-0.00166834,0.00901614,
0.0166071,-0.0344464,-0.00423941,-0.00940815,-0.00572277,-0.00421182,0.0168108,0.0137012,-0.0391797,-0.0104906,-0.00334727,0.0202646,
0.016908,-0.0325974,-0.00489583,-0.00691791,-0.00992043,-0.019607,0.0167589,0.00627051,-0.0369234,-0.0095278,-0.00406085,0.0418167,
0.00819437,-0.0204446,-0.0110247,-0.00765121,-0.0115424,-0.0263063,0.0118772,-0.00599137,-0.0230784,-0.00663329,-0.00187745,0.0463074,
0.0142901,-0.0102215,-0.00330955,-0.0106421,-0.0125203,-0.030105,0.00570712,-0.0150359,-0.00891269,-0.0117872,0.000949348,0.0356683,
0.0142693,-0.00643508,-0.0107251,-0.00816379,-0.0102785,-0.0232768,0.00307801,-0.0195755,0.00525167,-0.0037415,0.00120012,0.0234211,
0.0194002,0.00250489,-0.00526253,-0.00601109,-0.00674862,-0.0186996,-0.00212689,-0.0266927,0.0075028,-0.00471009,0.00209427,0.013429,
0.0139079,0.00661845,-0.00301879,0.00161112,0.00289857,-0.0115445,-0.00765382,-0.0283391,-0.00215936,0.00269187,0.00202211,0.000862847,
0.0187188,0.00494006,-0.000130633,-0.00557932,0.000634389,-0.00309948,-0.0154343,-0.032885,-0.0156863,0.00365504,-0.0022358,-0.0174968,
0.0148385,0.00777213,-0.00496852,0.00042671,0.00545351,-0.00592052,-0.0142001,-0.0206921,-0.00828856,0.00558408,-0.00520645,-0.025875,
0.0177205,-0.000338303,-0.000469504,-0.00194072,0.00705386,-0.0122812,-0.0248774,-0.0210569,-0.00700927,0.00204015,-0.00463624,-0.0339299,
0.00772653,0.00378885,0.000488747,0.000840143,0.00801107,0.000676192,-0.0246081,-0.0146627,0.00231695,0.00364733,0.000440652,-0.0329691,
0.00352932,0.00244702,-0.00756676,-0.00153268,0.00446189,0.0210396,-0.0256258,-0.0198602,-0.00348973,0.000747336,-0.00156568,-0.0291096,
0.00995819,-0.00017828,-0.000490338,-0.00036656,0.0102499,0.0581451,-0.0150525,-0.0118597,-0.00318117,-0.00344041,-0.000996977,-0.0194538,
0.0102723,0.00235203,-0.00242762,-0.000168513,0.0105658,0.0672427,-0.0134922,-0.0109434,-0.00384012,0.00106426,-0.00171653,-0.018811,
0.00833511,-0.00251753,-0.0027545,0.00356884,0.0163557,0.0628193,0.000625343,-0.00777473,-0.00289105,0.000739785,-0.00243656,-0.0252495,
0.00318092,-0.013499,0.00207043,0.00505071,0.0215027,0.0506697,0.00637427,-0.00331939,-0.0135336,0.00556634,-0.00541066,-0.0184868,
0.00961918,-0.0119194,0.000135352,-0.00119572,0.0227875,0.0304715,0.0179203,0.00210088,-0.0299729,-0.000875121,-0.00613162,0.0169304,
0.0121968,-0.00164177,0.00270826,0.00704372,0.02021,0.00898502,0.0291468,0.00494491,-0.0299948,0.00105384,-0.00975049,0.0581444,
0.0125236,0.028602,0.00270646,0.00465771,0.0173115,-0.0076732,0.0355469,0.00811038,-0.0193943,-0.00603167,-0.00532124,0.06781,
0.00931193,0.0714077,0.00528105,0.00484607,0.00894102,-0.0224011,0.0425938,0.00548056,-0.0136246,0.0013701,-0.00797509,0.0514003,
0.0147956,0.114542,0.00334935,-0.00172738,-0.00651127,-0.0487208,0.0432049,0.00285059,-0.00914422,0.00716203,-0.00708792,0.032739,
0.0131997,0.154463,0.00946711,0.00167852,-0.0142361,-0.0718234,0.0505801,0.00762533,-0.0159333,0.0020078,-0.00362552,0.0131139,
0.0135385,0.173464,0.0107567,0.00283014,-0.00972632,-0.0894556,0.0489444,0.0169075,-0.0220798,0.00103864,-0.000163364,0.00540245,
0.0100171,0.170579,0.00850578,0.00204956,-0.0177715,-0.099686,0.047312,0.0117026,-0.0253301,-0.00121847,-0.00378413,0.00059034,
0.0180889,0.142912,0.00947525,0.00191249,-0.0238843,-0.0812669,0.0482588,0.0171223,-0.00604564,0.00231916,-0.00354173,0.00962345,
0.0271297,0.10366,0.008514,0.00692627,-0.015831,-0.0544807,0.0485651,0.0154599,-0.000927541,-0.00315783,-0.00201163,0.00545856,
0.0281251,0.0653787,0.00658783,0.00485726,-0.000372276,-0.032527,0.0434017,0.0131544,0.00805306,-0.00284012,-0.000481552,0.00258296,
0.0230069,0.0351509,-0.00274213,0.00600774,0.00414114,-0.0228105,0.03631,0.00795234,0.00544312,-0.00252271,-0.00281472,-0.00705201,
0.0294818,0.00879034,0.00595751,0.00651455,0.00028481,-0.0179267,0.0363042,0.00951202,0.00766183,-0.00864444,-0.000962534,-0.00670548,
0.0211505,-0.012416,0.00628748,0.00573394,-0.000995222,-0.0133682,0.0221358,0.0101069,0.00601692,-0.00671795,-7.59838e-05,-0.00217251,
0.0128221,-0.0336201,0.0056524,0.00109051,-0.00420613,-0.00977882,0.0163406,0.0126346,-0.00174506,-0.0086551,0.00177665,0.00171768,
-0.00129827,-0.0631929,0.00694971,0.0106131,-0.00194322,-0.0100561,0.0182745,0.0190268,-0.00113657,-0.0105926,0.00523931,0.00528692,
-0.0109087,-0.0995257,0.00406246,-0.0027214,-0.00450863,-0.0109804,0.012162,0.0154401,0.00333533,-0.00705739,9.92969e-06,-0.000801203,
-0.0105362,-0.126522,0.00536109,0.00809056,0.0109556,-0.0151272,0.00959271,0.0240884,0.00941721,0.0019505,0.000897901,-0.00849824,
-0.0156343,-0.16382,-0.00171019,0.00634774,0.0190159,-0.0202429,0.00960059,0.0143873,0.012602,0.00516313,-0.0027208,-0.013619,
-0.0226615,-0.173433,-0.00588348,0.00846928,0.0319063,-0.0253614,0.00896586,0.0137019,0.00806071,-0.00192667,-0.00376338,-0.0113346,
-0.0242133,-0.156647,-0.0161732,0.00318732,0.0229055,-0.0314484,0.00157133,0.0136617,0.00738337,0.00225124,-0.00802474,-0.00550823,
-0.0202899,-0.107024,-0.0110093,0.00209186,0.0264613,-0.0298115,0.0083429,0.0110472,-0.00230758,-0.00194159,-0.00359295,-0.000647256,
-0.0137887,-0.0706012,-0.0164692,0.00325134,0.0280862,-0.0252794,0.000949331,0.0129411,0.00345556,0.00127,0.00180546,-0.00125892,
-0.00277804,-0.0425503,-0.0154898,0.00409031,0.0226291,-0.0117351,0.000638472,0.00292429,-0.00977492,-0.00807435,0.00140978,0.000383335,
0.000186246,-0.0228707,-0.0132224,0.0065405,0.00751434,0.0175824,-0.00836517,-0.00355006,0.00532659,-0.0103362,0.00133698,0.00138195,
0.0102354,-0.0105962,-0.0109547,0.00158763,-0.000839178,0.0156699,-0.0209109,-0.0200036,0.00755161,-0.0164615,-0.00195421,0.000771053,
0.00515555,0.00135619,-0.00933051,0.00307528,-0.005651,0.0147218,-0.0270187,-0.0200371,0.0139632,-0.0132506,0.00570172,0.00531135,
0.00265336,-0.00697375,-0.0170423,0.00649631,-0.00466766,0.00443618,-0.0289426,-0.0194258,0.0113617,-0.0174445,0.00498833,0.00148121,
-0.000812526,-0.0191666,-0.00672494,0.0112069,-0.000786771,0.00284201,-0.0289365,-0.0155942,0.0193859,-0.0100485,0.00492007,-0.00524642,
0.00312837,-0.0368319,-0.00542152,0.00658311,-0.00109118,0.00189095,-0.0270006,-0.00822038,0.0171094,-0.00683769,0.00259952,-0.00907665,
0.0057836,-0.0355016,-0.00443955,0.00357092,-0.0203904,0.0118853,-0.0218473,-0.0117917,0.00936157,0.000880449,0.00253394,-0.0080779,
0.0213186,-0.0457599,0.00201598,0.000560709,-0.0384021,0.023811,-0.0215254,-0.0111769,0.00515672,0.00634522,0.00504532,-0.0109427,
0.0333142,-0.058592,-0.00247389,-0.00309137,-0.0412829,0.0257563,-0.021206,-0.0163561,0.00191939,0.0163175,-0.00242201,-0.0253976,
0.066238,-0.0456666,0.00462683,-0.00352196,-0.0254915,0.0215847,-0.0205673,-0.017671,0.000937373,0.0182416,-0.00312701,-0.0195705,
0.0698669,-0.00955876,0.00464557,-0.0100674,-0.0142078,0.00936464,-0.0225068,-0.0189849,0.00961535,0.015981,-0.00254265,-0.00633896,
0.0445228,0.022367,0.00820649,-0.00437678,-0.00646603,0.00809087,-0.0234834,-0.0199758,0.00831488,0.0175842,-0.00324441,0.00528252,
0.019824,0.0459259,0.00243195,-0.00222536,-0.0054855,0.00842718,-0.0273605,-0.0212874,0.0144209,0.0188661,0.000562742,0.0120746,
0.00285313,0.0656256,0.00985796,0.00282581,-0.00740292,0.00651037,-0.0254456,-0.0151931,0.01248,0.0101683,0.00372778,0.0233735,
-0.0121852,0.0898372,0.00666084,0.00369408,-0.00256002,0.00201859,-0.0261093,-0.00813161,0.0131165,0.00565639,0.00270941,0.0340282,
-0.0159548,0.115664,0.0102255,0.00520863,0.00807742,0.00332243,-0.0261323,-0.00203436,0.0118231,-0.00207434,0.00233682,0.0350244,
-0.0210117,0.131193,0.00896206,0.00221844,0.0122756,0.0223338,-0.0325971,0.00213294,0.0172922,0.00114154,0.00711725,0.0337665,
-0.0112592,0.143831,0.0141385,-0.00431059,0.0103565,0.0629162,-0.0335921,0.0034046,0.00859752,-0.00175889,0.00256336,0.0247815,
-0.0063359,0.145528,0.0128772,0.00397227,0.0084371,0.0716271,-0.0304047,0.0149804,0.0137479,-0.00143933,0.0031626,0.0360782,
-0.0220172,0.132099,0.00421228,0.0119358,0.00361983,0.0664954,-0.0307617,0.0104613,0.000227254,0.000168561,0.0050517,0.0267699,
-0.0335137,0.111271,0.0110016,0.014429,0.00717269,0.0513843,-0.0301556,0.0159246,-0.000736232,0.00209895,0.00533323,0.0123095,
-0.0453329,0.0901264,0.00298267,0.00533496,0.00364245,0.0420689,-0.0321277,0.0114101,-0.00845912,0.00435182,0.00143169,-0.0105226,
-0.0375145,0.075747,0.0117057,0.00332638,-0.00407342,0.0243834,-0.0205806,0.0191319,-0.00426887,0.00209805,0.0033273,-0.0317464,
-0.0345263,0.0694202,0.0110934,0.00743746,0.00140992,0.0160346,-0.0106455,0.0223492,-0.00973565,0.00177645,0.000396026,-0.0333333,
-0.0347585,0.0547264,0.00887231,0.00607829,0.00238566,-0.000684708,-0.00296596,0.0271788,-0.0126257,-0.00112018,0.00454973,-0.018503,
-0.0430404,0.0162117,0.00343268,0.00697549,0.00110737,-0.00774596,0.00117044,0.0239626,-0.0126173,0.00371029,-0.000308648,-0.00689401,
-0.0236365,-0.0338907,-0.00104031,0.00304635,-0.000171376,-0.0164174,0.00949057,0.027188,-0.00391532,0.0014585,-0.00162336,-0.00558928,
-0.019043,-0.0843137,0.00317989,0.0132854,0.00273465,-0.033782,0.0136242,0.020114,0.00704122,0.0078996,-3.82557e-05,-0.0226375,
-0.0150945,-0.127009,-0.0016136,0.00646435,-0.00337421,-0.0559767,0.0187226,0.00853554,0.0170329,0.00049763,-0.00295799,-0.0313175,
-0.0240247,-0.153608,0.00164208,0.00801652,-0.00690804,-0.0553146,0.0241421,0.00629614,0.0164014,-0.000143159,0.00378292,-0.0371025,
-0.0175026,-0.15928,-0.00669159,0.00442035,-0.012696,-0.0491808,0.0237661,0.000196098,0.0112636,-0.00271523,0.0040874,-0.0222857,
-0.0109814,-0.13791,-0.0060104,0.00469018,-0.0139773,-0.029205,0.0262871,-0.0071891,0.00709243,-0.00238947,0.00214071,-0.0148761,
-0.00542671,-0.118795,-0.0111237,0.00592849,-0.00914228,-0.0137378,0.0246226,-0.00684512,0.00903886,-0.00109758,0.00631336,-0.0100446,
-0.00148232,-0.0864811,-0.00786621,0.0107108,-0.00269808,-0.00793028,0.0329382,-0.00231339,0.000683761,0.00180432,0.00437158,-0.0155178,
0.0195245,-0.0474072,-0.00299864,0.00551545,-0.00237128,-0.00148042,0.0315955,0.00640606,5.57995e-05,0.00277484,-0.00239687,-0.00554035,
0.0302289,-0.0112316,-0.00263796,0.00225427,0.000852504,-0.00469032,0.0315406,0.0064355,-0.00958611,-0.00140548,0.00307097,-0.0061895,
0.0332065,0.00562684,-2.34409e-05,0.00672215,0.00214417,-0.00629201,0.0256909,0.0145159,-0.0195496,-0.00301004,0.00306828,0.00152935,
0.0200868,0.0147582,-0.00255976,0.00861687,0.00214763,-0.00145636,0.0188754,0.00939896,-0.0282251,-0.00042917,0.00274615,-0.00781718,
0.0246739,0.0486789,-0.000266766,0.00246536,0.00150679,-0.00080743,0.0149576,0.0158742,-0.0220911,-0.00428697,0.00307039,-0.00654204,
0.0128419,0.0755167,-0.00183691,0.00500851,0.00762634,-0.0011258,0.00717653,0.0172006,-0.0220739,0.00215751,0.00500685,-0.00945452,
0.00744873,0.0782089,-0.000831376,0.00755381,0.00118977,-0.00144562,0.000361341,0.0149877,-0.0143299,-0.00202197,0.00533608,-0.0091499,
-0.00631492,0.0915252,0.000496206,0.00784757,0.00183557,0.00113059,-0.00484413,0.00826961,-0.00916137,-0.00362582,0.00470198,-0.00401841,
0.00245736,0.0955053,-0.00139555,-0.00151497,-0.0046017,-0.00208957,-0.00779604,0.00702641,-0.00689019,-7.85063e-05,0.0037484,-0.00532796,
0.0154149,0.0985195,0.00347353,0.00457758,0.000872542,0.00177158,-0.00527502,0.00868243,-0.00172139,0.00121528,0.000221744,-0.00342021,
0.0171044,0.0899436,-0.00163756,-0.00317162,-0.0010582,-0.00112943,-0.014344,0.00808646,-0.00685457,-0.000388369,-8.30558e-05,-0.00569974,
0.00913567,0.0662358,0.00323156,0.00710959,0.00538124,-0.00403182,-0.0105355,0.0094236,-0.00973396,0.00154938,0.00862893,-0.00379599,
0.0134007,0.0283616,-0.00381121,-0.00385582,-0.00395477,-0.00146255,-0.0234681,0.000459914,-0.00681815,-0.00262975,0.00156815,-0.00253801,
0.0350504,-0.00243124,0.00234559,-0.00162017,0.00312798,-0.0034018,-0.0238452,0.00630671,-0.00679954,-0.00584306,0.0019144,-0.0035354,
0.0357737,-0.0251773,0.00238542,0.00222654,-0.000413629,-0.00598625,-0.0306612,0.0192372,-0.00420506,-0.00583696,0.00258492,-0.00228089,
0.0307019,-0.0389113,0.00306901,0.00382089,0.00505888,-0.00406479,-0.0329702,0.0315246,-0.0106246,-0.00325535,0.00325774,0.00508892,
0.0130738,-0.063916,0.00310858,0.001875,-0.00234655,0.00010901,-0.0394644,0.0257839,-0.0102828,0.000614004,-0.00121825,0.00569645,
0.00767911,-0.0654221,0.00958682,-0.00167959,0.00280352,0.00074023,-0.0359784,0.0158584,-0.0154135,-0.00131163,-0.000540947,0.00147344,
0.0071128,-0.025723,0.0102699,-0.000404136,0.00119258,0.00169221,-0.0286289,0.00915243,-0.00154905,0.0028796,-0.00501253,0.00272212,
0.0104089,0.0117186,0.0041919,-0.00556673,-0.000418602,-0.000898322,-0.0170937,-0.00141693,-0.000239596,0.00224166,0.00114213,-0.00182539,
0.0117724,0.0343469,0.00326467,-0.0020362,-0.000742238,0.00133916,-0.0142504,-0.0152061,0.0107289,0.00804253,0.00246977,0.00167451,
0.00959316,0.0321813,-0.00249206,0.0021388,0.00344109,-0.00350716,-0.007543,-0.0257764,0.00656711,0.00482898,0.000258127,0.00227587,
0.00805641,0.0271135,-0.000844566,0.00309485,0.000219544,-0.00867647,0.000453179,-0.0237918,0.0127084,-0.000638225,0.00255572,0.00577373,
-0.00507192,-0.00500232,-0.00338281,0.00759263,0.00697798,-0.0109493,0.00684091,-0.02374,0.00951452,0.00194305,0.00678698,0.00379767,
-0.0107975,-0.0361577,-0.00141443,-0.000143116,0.00826319,-0.00968175,0.0109765,-0.0285186,0.0140484,-0.000948779,0.00136195,0.00117691,
-0.00429129,-0.0628115,0.00570441,0.00210149,0.0089043,-4.45987e-05,0.0125384,-0.0242843,0.0166518,-0.00416266,0.0094604,0.000165115,
0.00800754,-0.0923688,0.000588774,-0.00531213,0.00568186,-0.00714928,0.0141021,-0.0303537,0.0144274,-0.00480112,0.0088683,-0.00632037,
0.0170844,-0.107767,0.00674038,0.000151846,0.00567859,-0.0103914,0.0256482,-0.0290202,0.00898485,-0.000288654,0.0121413,-0.00282626,
0.018432,-0.12961,-0.00513757,0.00143039,0.0053531,-0.0139562,0.0249629,-0.0331616,-0.00708045,-0.00157129,0.0125186,0.00163316,
0.02364,-0.153714,-0.00220704,0.000776968,0.00406147,-0.015912,0.0281434,-0.0260369,-0.01413,0.0016531,0.00903431,0.0051263,
0.0256253,-0.1408,-0.0102235,0.00173284,0.00276949,-0.0181901,0.0203806,-0.0234214,-0.00765669,0.00745286,0.0103807,0.00089247,
0.0198806,-0.0973083,-0.00922651,0.000434587,-0.00206424,-0.00920077,0.0168057,-0.0220956,-0.00246972,0.0029503,0.00722141,-0.0120341,
0.00640549,-0.0625147,-0.0111281,0.00267704,-0.00464482,0.00139802,0.00969242,-0.0156207,-0.000822691,0.00166697,0.00889263,-0.0104735,
0.00161879,-0.0467212,-0.0085235,0.000733491,-0.00722587,0.00909918,0.0109526,-0.0155866,-0.00593497,-0.00508959,0.00541405,-0.00987883,
4.71485e-05,-0.0161232,-0.0107492,0.00587178,-0.00787579,0.00714206,0.00867445,-0.0149104,-0.000421659,-0.0134561,-0.00353639,-0.00992809,
-0.0115094,0.0337868,-0.0120102,0.00231662,-0.00884819,0.00840446,0.0102627,-0.0187433,0.000264083,-0.0128084,-0.00733473,-0.0263963,
-0.0259684,0.0698495,-0.0123064,0.00777472,-0.00563591,0.00837932,0.0137858,-0.0116319,0.00223919,-0.0111952,-0.00276168,-0.0296648,
-0.0256233,0.0730707,-0.0109942,0.00131969,-0.00789723,0.00932034,0.0166683,-0.0238386,-0.000291235,-0.0105481,-0.0120313,-0.0367962,
-0.0172353,0.0695283,-0.00517586,-0.00256118,-0.00114476,0.00607656,0.0208417,-0.0170523,0.00426276,-0.0111889,-0.00777877,-0.0320152,
-0.0175456,0.0508521,-0.00869496,-0.00740941,-0.00501698,0.00766244,0.0237306,-0.0150966,0.00270159,-0.00345941,-0.0151155,-0.0291652,
-0.0204375,0.030242,-0.00545438,-0.0106496,0.00141236,0.00635148,0.0240473,0.00456468,0.00822493,-0.00731998,-0.0108619,-0.0182657,
-0.0368572,0.0138153,0.000360698,-0.0151793,0.00429974,0.017275,0.0243672,0.0161763,0.0114965,0.000731199,-0.00950539,-0.0199208,
-0.0378302,0.0231424,5.78582e-05,-0.0200329,0.00364516,0.0104925,0.0237244,0.0264992,0.00382386,-0.00506118,-0.00782659,-0.00805277,
-0.0449268,0.0308583,0.00426123,-0.0142644,0.00266805,0.024959,0.0298455,0.0390748,0.00355778,-0.00183917,-0.00228423,0.00574865,
-0.0404402,0.0430802,0.00395649,-0.0216975,-0.00957762,0.00819807,0.0214822,0.039094,-0.00926216,-0.00505595,0.000682798,0.0166547,
-0.0430433,0.0536913,0.0110555,-0.0152894,-0.0176387,-0.00147927,0.0250336,0.0381467,-0.000510084,0.00396119,-0.00665216,0.0397969,
-0.0302001,0.061726,0.00366626,-0.016288,-0.0186175,-0.003751,0.0166759,0.0381646,0.0166144,0.0120127,-0.00432876,0.0597223,
-0.0257343,0.0687941,0.0072222,-0.00795264,-0.0118704,0.00234871,0.012184,0.03786,0.0260142,0.0123378,-0.00297113,0.038764,
-0.0261045,0.055579,0.00208488,-0.00992162,-0.00641158,0.00201055,0.000933779,0.0314378,0.0402451,0.0120193,-0.00354514,0.027789,
-0.0322766,0.0401095,0.00821471,-0.00835149,0.00419784,0.00199533,-0.00323159,0.0208297,0.0470732,0.0171741,-0.00701664,0.0300168,
-0.0268655,0.0236732,0.00693907,-0.0180516,0.00450466,0.00230306,-0.018663,0.0179474,0.0506838,0.0158905,-0.00308354,0.0399747,
-0.0340169,0.00659193,0.00727232,-0.0180957,0.00964023,0.00293375,-0.0170296,0.00572783,0.0443159,0.0126755,-0.0043016,0.0338388,
-0.0379553,-0.00920276,0.006317,-0.0104154,0.00479525,-0.000619765,-0.0208677,0.00670682,0.0546905,0.00688535,-0.00584171,0.0360771,
-0.0454416,-0.0153405,0.00375114,-0.0104638,0.00284743,0.00162272,-0.0205191,-0.000363963,0.0489695,0.00914406,-0.00641612,0.0115976,
-0.0339394,-0.0192263,0.00215025,-0.00826082,-0.000710363,0.00225655,-0.0208131,-0.000353383,0.0484006,0.00528616,-0.00280544,0.000965281,
-0.0243748,-0.0356694,-0.00202703,-0.010567,0.000238786,0.00643281,-0.0220717,-0.00646122,0.0417157,0.00722347,-0.000160734,-0.0148146,
-0.00741121,-0.0534021,0.00216528,-0.00772419,-0.00235364,0.00964432,-0.0213976,-0.00806354,0.042436,0.00111245,0.00409351,-0.0264058,
-0.00236484,-0.0576151,-0.00362352,-0.00617099,0.000204829,0.00963747,-0.0213665,-0.0141748,0.0363956,0.00369403,0.00512817,-0.0367056,
0.0100811,-0.0409037,-0.00554996,-0.00848291,-0.0052854,0.0051245,-0.0258416,-0.0235075,0.0174772,-0.00338252,0.00906012,-0.0434606,
0.00674723,-0.014536,-0.00136046,-0.00532352,0.00017028,0.009305,-0.0171161,-0.0309106,0.00435293,-0.00208852,0.012348,-0.0357246,
-0.00689328,0.00410332,-0.00972766,-0.0115021,0.000796752,0.00865739,-0.0177262,-0.0396037,-0.0142455,-0.0114186,0.0104846,-0.00255143,
-0.0231135,0.0356185,-0.00489624,-0.00158499,0.00850591,0.0154154,-0.0122184,-0.0389626,-0.0389626,-0.0117343,0.00829893,0.0338449,
-0.0245282,0.055864,-0.00908019,-0.00583474,0.000761838,0.013482,-0.0160461,-0.0492699,-0.0636819,-0.0143037,0.00740076,0.0557578,
-0.0249805,0.0651618,-0.00907988,-0.00300303,0.00589547,0.00575448,-0.00635132,-0.0470236,-0.0726286,-0.00850263,0.013263,0.0754211,
-0.0235044,0.0496683,-0.0180949,-0.00661127,-0.00120464,-0.00744522,-0.00277247,-0.0463893,-0.0728858,-0.0117161,0.00850075,0.0809229,
-0.016558,0.023227,-0.00779444,0.00233523,0.00103163,-0.00841038,0.00885595,-0.0319136,-0.0650978,-0.0101005,0.00631354,0.0600295,
-0.0215259,-0.00482595,-0.00876284,-0.00224069,-0.000917242,-0.00808708,0.0011689,-0.02742,-0.0425039,-0.00462166,0.00155021,0.0327012,
-0.0200569,-0.043505,-0.00232747,-5.65437e-05,0.00260702,-0.00422178,0.0118337,-0.0197089,-0.0205575,-0.0026843,0.00290311,0.0243713,
-0.015692,-0.0702744,0.00120957,-0.00366794,0.0045217,-0.00582893,0.0131633,-0.0091018,0.00170697,-0.00493224,0.00135779,0.0298883,
-0.0058551,-0.0815929,0.00442389,-0.00792366,0.00128548,-0.00228448,0.014494,-0.0116958,-0.00275365,-0.00396078,0.0004555,0.0222092,
-0.0101843,-0.0832554,0.00087668,0.000698005,-0.00838941,0.00351406,0.0138944,-0.00205706,-0.00786217,0.00248369,-0.00720851,-0.00639316,
0.00351509,-0.08653,-0.00395899,0.000305139,-0.0142008,0.00963498,0.018447,0.000819936,-0.0245647,0.00474294,-0.012298,-0.0314513,
0.00755656,-0.087553,0.00376044,0.00280974,-0.0106756,0.00384444,0.0149523,0.0159301,-0.0300035,-0.00104629,-0.0106279,-0.0339709,
0.0112769,-0.0866464,-0.00075453,0.00209507,-0.00747218,-0.000979919,0.0143562,0.0265325,-0.0328711,-0.0042599,-0.0128222,-0.0245763,
0.00534025,-0.065781,0.00245656,0.00363429,-0.0116731,-0.00226262,0.00732248,0.0284424,-0.0273724,-0.00425397,-0.0143739,-0.018399,
0.0109953,-0.0436291,0.0021258,0.00807141,-0.00685925,-0.00451091,0.0131675,0.0300303,-0.0241317,0.0025129,-0.0146392,-0.0112539,
0.0182622,-0.0150393,0.00308234,0.00381666,-0.00301081,-0.00643706,0.00806753,0.0171309,-0.0205734,-0.000378306,-0.0145838,-0.0121555,
0.0139419,0.0261059,0.000497109,0.00922089,0.00116005,-0.0054656,0.00908542,0.014534,-0.00575137,0.00381343,-0.0171054,-0.0182066,
0.0150976,0.0566271,-0.000156842,0.00689933,0.00339983,-0.0183375,0.00302147,0.000347647,-0.0115378,0.00188853,-0.0119018,-0.0271537,
0.0181885,0.0955194,0.00788131,0.0074762,0.00274277,-0.0234828,0.00275326,-0.00450185,-0.0163627,0.00608081,-0.00766531,-0.0303044,
0.0206394,0.119925,0.00336343,0.00580054,0.00337419,-0.0324913,-0.0049189,-0.0145018,-0.0137869,0.00383456,-0.00503994,-0.0257271,
0.021163,0.126625,0.0123669,0.00863323,0.00400639,-0.0318415,-0.00808327,-0.00904765,-0.0112151,0.00287641,-0.00370367,-0.0172854,
0.0133206,0.129464,0.00656071,0.0114672,0.00335167,-0.040206,-0.0199395,-0.00906564,-0.0241004,0.0064258,-0.00236872,-0.0114179,
0.0161074,0.12844,0.0100907,0.00625397,-0.0014874,-0.0369804,-0.0263224,-0.00264372,-0.0308725,0.00289284,-0.00103504,-0.00619323,
0.0205091,0.123555,0.00718158,0.00522742,0.00172305,-0.0360081,-0.0288415,0.0102182,-0.0218731,0.00483328,0.000941272,0.0164175,
0.0216971,0.11674,0.00781365,0.00259268,0.00718811,-0.0250552,-0.0197704,0.0176085,-0.0151308,0.000979143,0.00162862,0.0271175,
0.017418,0.102843,0.011021,0.00865197,0.00685929,-0.017965,-0.0161719,0.0262881,0.000622691,0.000344819,-0.000260747,0.0226874,
0.0218375,0.0580396,0.00296023,0.000225505,0.00781937,0.0013598,-0.0148267,0.0269207,0.00381738,-0.0025427,-0.00118542,0.00988786,
0.0513748,0.0228951,0.0103524,0.00564426,0.0145756,0.0107054,-0.0063984,0.0272331,0.00185814,-0.00124459,0.00271794,0.00256234,
0.0619243,-0.033176,3.74639e-05,0.00269429,0.0152161,0.0248813,-0.000223291,0.0220743,0.00182791,5.39266e-05,-0.0020722,-0.000255059,
0.0605688,-0.0828093,0.00549738,0.0032875,0.015214,0.0229615,0.00563033,0.0285072,-0.000780296,-0.00218852,0.0044046,0.00658666,
0.043767,-0.127937,0.00194257,-0.00126849,0.0126375,0.0216872,0.0150258,0.0243179,0.00787722,0.0113446,-6.56291e-05,0.00216117,
0.0369525,-0.158579,0.00160679,-0.00292508,0.00748676,0.0149416,0.0192707,0.0198085,0.0113816,0.00813715,-0.00196128,0.010936,
0.0233842,-0.161858,-0.00291468,0.00443467,0.00394692,0.0149587,0.0241601,0.0210958,0.010055,0.00589593,0.00258097,0.0119848,
0.0133644,-0.155159,-0.010656,-0.00108125,-0.00152338,0.00982674,0.0203576,0.0143364,0.00872676,0.00623063,3.95949e-05,0.0117463,
